0.43,3.43,13.33,34.19,65.79,101.42,128.67,132.83,101.66,29.90,77.79,206.32,332.47,429.43,472.49,444.61,340.72,169.47,47.57,279.49,491.34,650.24,731.10,720.85,620.47,444.44,218.05,27.17,258.64,447.86,574.46,628.49,610.94,532.33,409.98,264.52,116.29,17.66,125.56,201.69,246.02,262.86,259.11,242.26,218.84,193.35,167.87,142.35,115.33,84.91,49.69,9.48,34.39,79.11,120.88,155.53,179.32,189.58,185.20,166.79,136.54,97.86,54.85,11.64,28.05,61.42,86.73,103.36,111.63,112.58,107.59,98.12,85.43,70.50,53.95,36.19,17.52,1.68,20.85,39.17,55.64,69.12,78.49,82.83,81.62,74.80,62.87,46.88,28.25,8.67,10.16,26.72,39.86,48.90,53.63,54.29,51.48,46.01,38.75,30.54,22.03,13.70,5.83,1.47,8.16,14.22,19.57,24.08,27.55,29.76,30.54,29.77,27.48,23.76,18.87,13.14,6.94,0.68,5.27,10.62,15.16,18.74,21.27,22.68,22.90,21.88,19.65,16.34,
1.34,1.01,0.75,0.53,0.29,0.06,0.12,0.16,0.02,0.43,1.02,1.65,2.12,2.24,1.88,1.00,0.30,1.87,3.48,4.90,5.92,6.36,6.12,5.18,3.61,1.59,0.70,3.02,5.15,6.89,8.05,8.50,8.17,7.09,5.32,3.00,0.33,2.45,5.04,7.14,8.48,8.87,8.25,6.70,4.42,1.76,0.90,3.18,4.75,5.43,5.22,4.24,2.79,1.19,0.22,1.19,1.58,1.39,0.73,0.17,1.08,1.77,2.10,2.01,1.54,0.81,0.01,0.77,1.33,1.63,1.70,1.59,1.41,1.25,1.15,1.13,1.16,1.19,1.17,1.07,0.88,0.61,0.29,0.06,0.43,0.85,1.31,1.82,2.33,2.78,3.08,3.16,2.94,2.41,1.58,0.54,0.59,1.67,2.59,3.24,3.59,3.64,3.43,3.00,2.42,1.71,0.90,0.02,1.03,2.09,3.11,3.95,4.48,4.58,4.19,3.29,1.97,0.34,1.41,3.09,4.50,5.45,5.80,5.46,4.43,2.82,0.83,1.30,
6.43,4.97,3.20,1.31,0.56,2.43,4.36,6.42,8.60,10.71,12.38,13.17,12.58,10.28,6.13,0.36,6.48,13.53,19.78,24.22,26.05,24.79,20.45,13.48,4.76,4.58,13.33,20.37,24.88,26.42,25.02,21.09,15.35,8.69,2.04,3.76,8.10,10.67,11.47,10.76,9.05,6.88,4.78,3.15,2.21,2.00,2.38,3.11,3.86,4.33,4.32,3.71,2.54,0.95,0.86,2.64,4.16,5.25,5.83,5.85,5.26,4.04,2.29,0.30,1.46,2.42,2.13,0.35,2.79,6.77,10.80,13.89,15.12,13.78,9.60,2.82,5.80,15.04,23.50,29.78,32.79,31.95,27.24,19.24,9.01,2.12,12.74,21.60,27.78,30.81,30.70,27.86,22.95,16.80,10.18,3.74,2.05,6.95,10.87,13.86,16.01,17.36,17.94,17.69,16.55,14.46,11.41,7.51,2.94,1.94,6.70,10.87,14.00,15.76,15.99,14.74,12.29,9.03,5.44,2.00,0.93,3.14,4.56,5.29,5.54,5.52,5.42,5.35,
6.83,5.85,4.47,2.68,0.55,1.78,4.05,5.96,7.23,7.61,7.01,5.45,3.15,0.47,2.12,4.14,5.20,5.09,3.83,1.69,0.91,3.43,5.34,6.27,6.00,4.57,2.22,0.62,3.44,5.73,7.08,7.30,6.36,4.46,1.97,0.65,2.91,4.40,4.84,4.18,2.62,0.54,1.56,3.20,4.01,3.81,2.62,0.64,1.74,4.08,5.93,6.95,6.92,5.81,3.78,1.13,1.75,4.42,6.51,7.73,7.95,7.15,5.48,3.17,0.56,1.97,4.04,5.36,5.76,5.22,3.88,2.01,0.03,1.90,3.27,3.91,3.71,2.70,1.05,0.96,2.99,4.67,5.71,5.92,5.25,3.78,1.67,0.81,3.35,5.59,7.22,8.00,7.79,6.64,4.70,2.27,0.28,2.56,4.26,5.23,5.46,5.09,4.34,3.45,2.58,1.82,1.18,0.63,0.09,0.45,1.00,1.53,1.97,2.28,2.40,2.31,2.01,1.60,1.16,0.80,0.57,0.46,0.42,0.37,0.24,0.00,0.33,0.72,
1.09,1.49,1.90,2.27,2.54,2.61,2.37,1.73,0.69,0.68,2.21,3.63,4.69,5.16,4.93,4.02,2.58,0.82,0.98,2.58,3.77,4.41,4.47,3.99,3.09,1.94,0.75,0.32,1.14,1.65,1.84,1.78,1.55,1.26,1.00,0.81,0.69,0.61,0.52,0.38,0.17,0.10,0.40,0.64,0.74,0.63,0.35,0.05,0.45,0.71,0.74,0.50,0.00,0.68,1.40,2.05,2.50,2.69,2.61,2.25,1.61,0.70,0.45,1.79,3.23,4.62,5.80,6.54,6.66,5.99,4.50,2.25,0.57,3.66,6.62,9.07,10.62,11.02,10.14,8.06,5.00,1.34,2.46,5.94,8.69,10.40,10.91,10.20,8.43,5.88,2.92,0.03,2.62,4.56,5.71,6.04,5.68,4.82,3.70,2.56,1.54,0.75,0.19,0.17,0.37,0.46,0.50,0.51,0.55,0.64,0.83,1.13,1.55,2.05,2.55,2.95,3.14,3.02,2.55,1.72,0.59,0.75,2.14,3.45,4.53,5.26,5.54,5.31,
4.55,1.68,1.73,5.27,8.47,10.84,11.96,11.57,9.60,6.23,1.85,2.95,7.49,11.11,13.27,13.66,12.24,9.28,5.24,0.77,3.47,6.91,9.14,9.97,9.47,7.94,5.77,3.41,1.22,0.53,1.77,2.51,2.87,2.97,2.93,2.82,2.68,2.48,2.22,1.87,1.44,0.96,0.51,0.14,0.08,0.12,0.01,0.18,0.33,0.34,0.13,0.32,0.98,1.79,2.65,3.47,4.14,4.58,4.69,4.38,3.59,2.28,0.51,1.56,3.72,5.69,7.19,7.97,7.89,6.93,5.21,2.98,0.54,1.79,3.72,5.08,5.78,5.80,5.24,4.23,2.95,1.59,0.34,0.65,1.29,1.56,1.49,1.20,0.83,0.52,0.37,0.44,0.71,1.11,1.52,1.80,1.84,1.54,0.91,0.05,0.88,1.68,2.17,2.24,1.87,1.15,0.27,0.58,1.21,1.47,1.30,0.77,0.01,0.76,1.33,1.55,1.33,0.70,0.21,1.22,2.08,2.57,2.54,1.93,0.81,0.64,2.16,3.47,
1.14,4.12,6.69,8.74,10.16,10.81,10.56,9.31,7.03,3.83,0.00,4.06,7.84,10.79,12.45,12.53,10.95,7.88,3.72,0.92,5.38,9.01,11.30,11.96,10.97,8.58,5.23,1.49,2.04,4.86,6.63,7.22,6.73,5.40,3.60,1.72,0.09,1.05,1.61,1.63,1.27,0.77,0.33,0.11,0.13,0.35,0.60,0.74,0.64,0.29,0.27,0.89,1.43,1.72,1.63,1.09,0.12,1.17,2.59,3.89,4.80,5.12,4.74,3.65,2.01,0.05,1.95,3.74,5.11,5.95,6.24,6.05,5.45,4.53,3.40,2.10,0.69,0.81,2.37,3.94,5.41,6.64,7.47,7.74,7.33,6.19,4.35,1.93,0.85,3.70,6.32,8.39,9.66,9.92,9.09,7.23,4.55,1.38,1.88,4.80,7.03,8.31,8.50,7.64,5.91,3.67,1.31,0.74,2.18,2.82,2.71,2.03,1.08,0.20,0.30,0.25,0.39,1.47,2.75,3.88,4.57,4.58,3.86,2.49,0.70,1.20,2.87,4.06,
7.72,9.98,10.98,10.53,8.63,5.57,1.79,2.12,5.55,7.99,9.10,8.75,7.11,4.56,1.61,1.18,3.31,4.41,4.33,3.13,1.09,1.36,3.66,5.30,5.89,5.26,3.47,0.82,2.22,5.15,7.47,8.82,8.98,7.94,5.88,3.12,0.09,2.78,5.12,6.66,7.32,7.11,6.20,4.80,3.13,1.40,0.27,1.79,3.09,4.10,4.76,4.99,4.74,4.01,2.87,1.46,0.07,1.52,2.76,3.63,4.05,3.99,3.49,2.65,1.64,0.64,0.22,0.80,1.07,1.06,0.82,0.47,0.15,0.01,0.10,0.51,1.21,2.08,2.95,3.64,3.98,3.84,3.20,2.10,0.66,0.94,2.52,3.91,4.96,5.58,5.76,5.48,4.78,3.69,2.30,0.71,0.96,2.54,3.86,4.76,5.13,4.94,4.22,3.11,1.81,0.52,0.56,1.30,1.63,1.55,1.14,0.49,0.24,0.89,1.30,1.33,0.91,0.08,1.03,2.24,3.31,4.05,4.28,3.94,3.06,1.74,0.17,1.42,
2.27,1.95,1.52,1.11,0.81,0.68,0.69,0.79,0.91,0.98,0.93,0.73,0.36,0.21,0.96,1.85,2.83,3.77,4.50,4.85,4.63,3.76,2.27,0.31,1.87,3.94,5.57,6.49,6.54,5.72,4.17,2.18,0.09,1.76,3.13,3.88,4.03,3.69,3.07,2.35,1.68,1.12,0.66,0.26,0.14,0.60,1.14,1.75,2.37,2.92,3.28,3.33,2.99,2.20,0.99,0.52,2.12,3.57,4.61,5.03,4.72,3.73,2.19,0.34,1.54,3.17,4.29,4.74,4.47,3.54,2.15,0.55,0.97,2.19,2.93,3.14,2.83,2.10,1.11,0.02,0.99,1.75,2.17,2.19,1.82,1.13,0.24,0.68,1.46,2.00,2.21,2.08,1.65,0.99,0.23,0.52,1.15,1.56,1.73,1.64,1.32,0.82,0.23,0.36,0.86,1.20,1.33,1.25,1.01,0.67,0.31,0.01,0.26,0.46,0.64,0.83,1.04,1.26,1.43,1.48,1.32,0.94,0.35,0.33,0.96,1.36,1.43,1.11,
6.27,7.25,7.52,6.96,5.58,3.50,0.96,1.72,4.20,6.15,7.34,7.66,7.12,5.86,4.08,2.05,0.02,1.77,3.15,4.04,4.41,4.29,3.76,2.93,1.97,1.05,0.33,0.08,0.17,0.03,0.19,0.29,0.15,0.28,0.94,1.68,2.32,2.72,2.78,2.51,2.00,1.40,0.86,0.49,0.34,0.35,0.40,0.34,0.05,0.54,1.44,2.55,3.72,4.76,5.46,5.66,5.27,4.29,2.79,0.90,1.19,3.26,5.09,6.49,7.31,7.48,6.98,5.91,4.41,2.67,0.87,0.83,2.32,3.54,4.47,5.10,5.42,5.42,5.12,4.55,3.73,2.73,1.62,0.45,0.73,1.90,3.02,4.06,4.93,5.53,5.74,5.48,4.71,3.47,1.88,0.06,1.81,3.61,5.19,6.46,7.28,7.53,7.12,6.00,4.21,1.87,0.81,3.56,6.07,8.04,9.23,9.51,8.82,7.25,4.97,2.24,0.62,3.30,5.51,7.05,7.82,7.79,7.03,5.64,3.82,1.83,0.05,1.54,
7.93,5.37,1.97,1.74,5.20,7.85,9.30,9.32,7.96,5.50,2.38,0.85,3.66,5.60,6.41,6.05,4.67,2.61,0.32,1.75,3.26,3.96,3.81,2.91,1.50,0.12,1.61,2.70,3.21,3.09,2.40,1.32,0.11,0.96,1.64,1.78,1.37,0.53,0.52,1.46,2.01,1.95,1.22,0.07,1.66,3.23,4.45,5.07,4.93,4.03,2.49,0.50,1.63,3.59,5.09,5.92,5.98,5.32,4.13,2.64,1.12,0.25,1.35,2.16,2.71,3.08,3.32,3.51,3.69,3.89,4.05,4.06,3.72,2.85,1.31,0.89,3.57,6.42,9.01,10.91,11.72,11.19,9.21,5.88,1.51,3.42,8.30,12.53,15.56,17.02,16.71,14.67,11.14,6.52,1.33,3.89,8.59,12.32,14.79,15.83,15.48,13.92,11.40,8.25,4.78,1.25,2.10,5.11,7.63,9.55,10.76,11.19,10.84,9.73,7.99,5.80,3.37,0.91,1.40,3.43,5.11,6.36,7.15,7.44,7.21,6.47,5.27,3.69,
6.92,5.67,3.79,1.36,1.40,4.10,6.22,7.25,6.85,4.92,1.68,2.33,6.38,9.68,11.52,11.42,9.23,5.16,0.24,6.18,11.76,16.10,18.51,18.58,16.27,11.87,6.01,0.48,6.73,11.95,15.57,17.30,17.13,15.32,12.33,8.66,4.82,1.21,1.91,4.41,6.27,7.56,8.39,8.85,8.97,8.76,8.15,7.11,5.61,3.67,1.41,0.99,3.30,5.25,6.64,7.35,7.38,6.82,5.82,4.55,3.15,1.75,0.44,0.70,1.63,2.33,2.78,3.01,3.06,3.01,2.92,2.85,2.86,2.93,3.03,3.05,2.87,2.37,1.47,0.19,1.38,3.09,4.74,6.11,7.01,7.32,6.96,5.92,4.29,2.18,0.22,2.69,4.97,6.80,8.00,8.42,8.01,6.81,4.93,2.56,0.05,2.58,4.69,6.08,6.57,6.14,4.96,3.32,1.58,0.08,0.97,1.46,1.44,1.05,0.48,0.07,0.45,0.55,0.36,0.07,0.63,1.19,1.63,1.91,2.04,2.06,2.00,1.89,
0.62,1.26,1.54,1.44,1.06,0.55,0.13,0.00,0.29,0.98,1.96,2.99,3.78,4.08,3.68,2.51,0.66,1.65,4.08,6.23,7.78,8.46,8.13,6.79,4.59,1.80,1.24,4.12,6.47,8.03,8.68,8.43,7.45,5.96,4.19,2.32,0.47,1.30,2.95,4.40,5.60,6.42,6.74,6.47,5.57,4.12,2.29,0.31,1.59,3.19,4.38,5.08,5.24,4.86,3.94,2.54,0.80,1.08,2.83,4.20,4.95,4.98,4.28,2.97,1.24,0.63,2.39,3.76,4.60,4.85,4.54,3.79,2.76,1.59,0.43,0.67,1.66,2.55,3.32,3.92,4.30,4.33,3.93,3.03,1.67,0.00,1.75,3.28,4.32,4.68,4.30,3.25,1.73,0.04,1.49,2.62,3.15,3.05,2.38,1.30,0.03,1.19,2.13,2.62,2.58,2.04,1.11,0.02,1.13,2.01,2.50,2.50,2.04,1.26,0.36,0.44,0.98,1.15,0.92,0.39,0.26,0.81,1.05,0.83,0.16,0.85,1.95,2.87,
2.13,4.16,5.90,7.08,7.53,7.16,5.94,3.97,1.39,1.55,4.56,7.28,9.38,10.54,10.52,9.25,6.81,3.48,0.35,4.20,7.58,10.05,11.30,11.16,9.69,7.12,3.86,0.41,2.72,5.14,6.58,6.99,6.48,5.33,3.87,2.47,1.40,0.78,0.55,0.54,0.52,0.27,0.32,1.23,2.34,3.44,4.30,4.71,4.54,3.75,2.40,0.67,1.22,2.97,4.32,5.05,5.00,4.17,2.65,0.68,1.43,3.31,4.64,5.19,4.86,3.69,1.90,0.22,2.29,3.99,5.05,5.32,4.83,3.70,2.16,0.49,1.08,2.39,3.33,3.88,4.08,3.96,3.59,2.99,2.18,1.20,0.11,1.02,2.09,3.00,3.69,4.10,4.22,4.04,3.57,2.80,1.78,0.57,0.73,2.01,3.14,4.01,4.52,4.63,4.33,3.68,2.77,1.72,0.63,0.40,1.31,2.07,2.70,3.21,3.64,3.94,4.07,3.91,3.35,2.35,0.93,0.78,2.57,4.17,5.32,5.80,5.48,4.34,
0.26,1.57,2.97,4.30,5.38,6.02,6.09,5.49,4.22,2.40,0.24,1.95,3.84,5.14,5.66,5.35,4.34,2.86,1.23,0.26,1.36,1.95,2.02,1.66,1.06,0.41,0.11,0.39,0.41,0.18,0.23,0.72,1.20,1.59,1.82,1.84,1.62,1.16,0.48,0.38,1.35,2.31,3.12,3.66,3.81,3.50,2.71,1.48,0.07,1.76,3.37,4.70,5.54,5.75,5.24,4.00,2.15,0.06,2.34,4.35,5.81,6.52,6.39,5.46,3.88,1.89,0.22,2.14,3.64,4.56,4.84,4.53,3.76,2.70,1.52,0.37,0.61,1.37,1.86,2.11,2.14,1.99,1.68,1.23,0.68,0.05,0.58,1.14,1.53,1.64,1.43,0.88,0.06,0.91,1.83,2.51,2.76,2.51,1.76,0.63,0.66,1.89,2.83,3.30,3.24,2.69,1.80,0.75,0.26,1.05,1.52,1.67,1.55,1.29,1.02,0.87,0.88,1.03,1.22,1.34,1.27,0.92,0.28,0.59,1.58,2.52,3.24,3.62,
2.01,0.74,0.81,2.37,3.66,4.45,4.58,4.03,2.87,1.29,0.44,2.04,3.25,3.88,3.87,3.26,2.23,0.98,0.21,1.10,1.52,1.43,0.89,0.06,0.84,1.54,1.83,1.61,0.90,0.15,1.28,2.22,2.76,2.77,2.29,1.46,0.50,0.34,0.88,0.98,0.63,0.08,0.97,1.78,2.21,2.05,1.17,0.36,2.29,4.25,5.79,6.56,6.30,4.99,2.81,0.14,2.56,4.84,6.34,6.88,6.44,5.20,3.42,1.44,0.41,1.84,2.69,2.89,2.51,1.72,0.75,0.13,0.73,0.89,0.58,0.16,1.22,2.38,3.41,4.10,4.26,3.82,2.79,1.28,0.53,2.44,4.23,5.65,6.51,6.67,6.08,4.78,2.92,0.71,1.57,3.62,5.15,5.93,5.85,4.94,3.39,1.47,0.48,2.12,3.18,3.51,3.08,2.02,0.56,0.99,2.32,3.18,3.44,3.09,2.22,0.99,0.40,1.77,2.92,3.71,4.01,3.81,3.14,2.12,0.92,0.30,1.37,2.18,
0.23,1.01,2.48,4.02,5.38,6.26,6.33,5.38,3.34,0.35,3.22,6.86,9.95,11.94,12.40,11.14,8.26,4.09,0.80,5.73,9.99,12.99,14.32,13.84,11.68,8.24,4.08,0.21,4.06,7.01,8.80,9.38,8.87,7.53,5.69,3.70,1.80,0.20,1.03,1.89,2.44,2.76,2.95,3.06,3.12,3.09,2.91,2.49,1.79,0.86,0.19,1.20,1.99,2.45,2.53,2.26,1.73,1.08,0.46,0.03,0.31,0.37,0.26,0.08,0.07,0.08,0.10,0.49,1.05,1.71,2.33,2.74,2.79,2.36,1.42,0.02,1.69,3.47,5.02,6.04,6.34,5.79,4.41,2.34,0.16,2.74,5.05,6.74,7.63,7.64,6.85,5.44,3.63,1.64,0.32,2.09,3.57,4.67,5.38,5.71,5.70,5.44,4.98,4.36,3.57,2.58,1.34,0.19,2.00,3.99,5.97,7.69,8.83,9.14,8.44,6.68,3.97,0.57,3.09,6.50,9.14,10.60,10.63,9.20,6.51,2.93,0.99,4.65,
5.26,5.38,5.03,4.21,3.00,1.47,0.26,2.04,3.67,4.96,5.68,5.70,4.97,3.58,1.73,0.26,2.09,3.44,4.10,3.97,3.11,1.73,0.13,1.36,2.43,2.90,2.72,1.99,0.92,0.24,1.22,1.85,2.06,1.85,1.33,0.66,0.01,0.49,0.66,0.49,0.03,0.59,1.18,1.55,1.58,1.19,0.40,0.67,1.85,2.91,3.65,3.90,3.56,2.65,1.27,0.41,2.15,3.71,4.85,5.38,5.21,4.34,2.87,1.01,0.96,2.79,4.23,5.15,5.45,5.15,4.32,3.08,1.61,0.06,1.39,2.58,3.43,3.85,3.84,3.46,2.82,2.07,1.37,0.83,0.48,0.30,0.18,0.02,0.28,0.77,1.44,2.20,2.92,3.48,3.77,3.73,3.35,2.67,1.78,0.78,0.22,1.17,2.04,2.83,3.51,4.06,4.43,4.57,4.42,3.91,3.02,1.76,0.20,1.52,3.18,4.58,5.50,5.78,5.33,4.20,2.55,0.65,1.17,2.62,3.47,3.65,3.22,2.36,
0.12,1.15,2.38,3.36,3.92,3.99,3.61,2.92,2.08,1.26,0.61,0.22,0.11,0.24,0.50,0.76,0.85,0.65,0.09,0.83,2.04,3.39,4.68,5.72,6.31,6.33,5.69,4.40,2.54,0.26,2.21,4.59,6.62,8.04,8.70,8.55,7.63,6.09,4.13,1.96,0.24,2.29,4.07,5.50,6.52,7.10,7.24,6.93,6.20,5.03,3.47,1.57,0.56,2.75,4.79,6.45,7.53,7.89,7.47,6.31,4.55,2.41,0.14,2.01,3.81,5.08,5.72,5.67,5.00,3.84,2.46,1.12,0.08,0.47,0.47,0.01,0.72,1.40,1.73,1.47,0.52,1.05,3.03,5.10,6.89,8.08,8.39,7.71,6.04,3.56,0.54,2.66,5.68,8.16,9.85,10.59,10.33,9.16,7.26,4.87,2.23,0.40,2.82,4.88,6.47,7.51,7.98,7.94,7.45,6.62,5.57,4.37,3.08,1.72,0.33,1.10,2.57,4.05,5.53,6.94,8.18,9.07,9.42,9.03,7.77,5.63,2.74,0.65,
0.70,3.01,6.01,7.70,7.77,6.33,3.88,1.18,0.94,1.82,1.13,1.06,4.22,7.53,10.05,10.92,9.60,5.97,0.36,6.47,13.51,19.63,23.79,25.22,23.57,18.88,11.69,2.85,6.53,15.29,22.38,26.99,28.67,27.38,23.43,17.48,10.35,2.88,4.15,10.18,14.89,18.18,20.13,20.91,20.72,19.66,17.81,15.16,11.66,7.28,2.05,3.83,10.03,16.07,21.38,25.40,27.66,27.85,25.88,21.85,16.02,8.81,0.72,7.64,15.64,22.64,28.03,31.29,32.06,30.19,25.77,19.12,10.78,1.46,7.99,16.72,23.90,28.89,31.27,30.88,27.87,22.63,15.76,7.97,0.01,7.53,14.03,19.11,22.50,24.06,23.78,21.75,18.22,13.55,8.18,2.62,2.64,7.17,10.67,12.97,14.06,14.04,13.13,11.54,9.52,7.30,5.06,2.98,1.19,0.26,1.35,2.17,2.82,3.45,4.23,5.25,6.53,7.98,9.37,10.42,10.80,10.24,8.56,5.80,2.19,1.89,5.94,9.48,
13.41,13.22,11.74,8.93,4.99,0.49,3.82,7.04,8.47,7.70,4.83,0.44,4.45,8.66,11.06,10.84,7.71,1.98,5.49,13.47,20.60,25.61,27.54,25.88,20.66,12.47,2.36,8.34,18.22,26.02,30.82,32.16,30.08,25.05,17.86,9.49,0.93,6.93,13.38,18.00,20.60,21.23,20.14,17.69,14.28,10.32,6.16,2.10,1.64,4.89,7.52,9.47,10.69,11.19,11.01,10.22,8.89,7.14,5.05,2.77,0.43,1.84,3.89,5.59,6.83,7.55,7.71,7.34,6.49,5.24,3.68,1.93,0.13,1.61,3.16,4.42,5.32,5.81,5.86,5.49,4.71,3.59,2.21,0.68,0.86,2.25,3.34,4.04,4.32,4.22,3.85,3.34,2.82,2.35,1.95,1.57,1.12,0.49,0.41,1.62,3.06,4.57,5.92,6.85,7.13,6.60,5.26,3.24,0.78,1.80,4.15,6.01,7.16,7.52,7.13,6.11,4.66,2.99,1.32,0.18,1.39,2.28,2.87,3.23,3.46,3.59,3.64,3.61,
4.66,5.13,4.85,3.83,2.15,0.00,2.34,4.53,6.26,7.22,7.26,6.37,4.70,2.51,0.14,2.10,3.95,5.26,5.97,6.11,5.76,5.06,4.12,3.04,1.88,0.67,0.59,1.89,3.21,4.45,5.49,6.18,6.36,5.87,4.61,2.59,0.01,2.83,5.39,7.18,7.79,7.00,4.87,1.74,1.86,5.25,7.79,8.96,8.48,6.35,2.88,1.38,5.71,9.36,11.68,12.25,10.96,7.98,3.79,0.98,5.64,9.54,12.18,13.22,12.58,10.38,6.93,2.70,1.75,5.87,9.13,11.17,11.77,10.92,8.79,5.68,2.00,1.80,5.25,7.95,9.60,10.02,9.17,7.18,4.31,1.00,2.28,5.05,6.90,7.60,7.14,5.74,3.76,1.64,0.21,1.52,2.18,2.25,1.92,1.45,1.10,1.00,1.20,1.59,2.00,2.23,2.14,1.67,0.86,0.16,1.22,2.08,2.57,2.54,1.96,0.91,0.41,1.71,2.68,3.08,2.74,1.66,0.01,2.03,4.07,5.77,6.83,7.01,
3.73,5.86,7.30,7.72,7.01,5.26,2.81,0.13,2.25,3.88,4.50,4.03,2.64,0.69,1.33,2.92,3.67,3.36,1.99,0.16,2.67,5.01,6.70,7.39,6.90,5.31,2.85,0.07,3.01,5.52,7.27,8.07,7.86,6.76,4.95,2.70,0.31,1.92,3.74,4.97,5.51,5.34,4.57,3.36,1.93,0.51,0.72,1.63,2.14,2.24,1.98,1.42,0.68,0.08,0.72,1.09,1.11,0.75,0.05,0.86,1.82,2.62,3.08,3.06,2.50,1.45,0.03,1.57,3.10,4.33,5.04,5.09,4.43,3.13,1.40,0.50,2.25,3.57,4.27,4.30,3.74,2.81,1.76,0.86,0.26,0.01,0.05,0.21,0.30,0.16,0.30,1.07,2.05,3.08,3.93,4.42,4.38,3.74,2.52,0.86,1.01,2.78,4.17,4.96,5.04,4.43,3.26,1.75,0.18,1.19,2.16,2.59,2.46,1.83,0.86,0.24,1.26,2.00,2.34,2.21,1.63,0.67,0.48,1.65,2.61,3.23,3.46,3.35,
3.14,3.59,3.56,2.98,1.90,0.43,1.22,2.82,4.17,5.11,5.52,5.40,4.80,3.86,2.71,1.52,0.43,0.51,1.28,1.92,2.49,3.05,3.58,4.08,4.46,4.64,4.52,4.01,3.08,1.74,0.10,1.68,3.37,4.75,5.63,5.87,5.41,4.30,2.70,0.83,1.01,2.55,3.55,3.87,3.48,2.50,1.13,0.35,1.63,2.47,2.72,2.36,1.51,0.36,0.88,1.97,2.72,3.04,2.89,2.33,1.47,0.49,0.41,1.04,1.29,1.11,0.58,0.12,0.76,1.06,0.81,0.05,1.47,3.19,4.89,6.16,6.66,6.15,4.60,2.17,0.79,3.86,6.57,8.53,9.48,9.33,8.19,6.30,4.01,1.62,0.58,2.45,3.90,4.98,5.75,6.30,6.68,6.87,6.79,6.33,5.37,3.84,1.75,0.80,3.55,6.20,8.38,9.78,10.15,9.40,7.57,4.88,1.67,1.62,4.58,6.81,8.08,8.27,7.43,5.75,3.51,1.07,1.23,3.08,4.28,4.71,4.36,3.32,
3.05,1.54,0.32,2.23,3.90,5.03,5.43,5.01,3.79,1.92,0.33,2.63,4.60,5.94,6.44,6.03,4.80,2.98,0.87,1.22,2.97,4.12,4.52,4.15,3.12,1.67,0.09,1.32,2.33,2.77,2.58,1.79,0.54,0.95,2.42,3.60,4.24,4.21,3.47,2.14,0.42,1.41,3.09,4.41,5.18,5.32,4.78,3.62,2.00,0.12,1.76,3.36,4.46,4.88,4.56,3.57,2.07,0.28,1.51,2.99,3.89,4.04,3.41,2.17,0.61,0.92,2.10,2.69,2.63,2.03,1.13,0.25,0.34,0.50,0.24,0.29,0.85,1.19,1.12,0.55,0.45,1.66,2.79,3.55,3.72,3.20,2.07,0.54,1.11,2.55,3.53,3.91,3.67,2.89,1.79,0.63,0.32,0.87,0.94,0.61,0.06,0.45,0.68,0.47,0.24,1.38,2.75,4.09,5.10,5.54,5.22,4.09,2.21,0.23,2.91,5.44,7.42,8.53,8.58,7.57,5.70,3.26,0.60,1.95,4.14,5.75,6.67,6.87,
6.32,5.23,3.74,2.08,0.51,0.76,1.63,2.06,2.13,1.97,1.75,1.65,1.74,2.06,2.50,2.91,3.13,3.01,2.44,1.42,0.00,1.65,3.30,4.69,5.58,5.79,5.28,4.12,2.49,0.60,1.30,3.04,4.44,5.38,5.76,5.49,4.60,3.16,1.32,0.70,2.64,4.25,5.30,5.68,5.36,4.43,3.09,1.53,0.05,1.47,2.66,3.54,4.11,4.36,4.30,3.93,3.26,2.31,1.12,0.21,1.56,2.77,3.68,4.14,4.07,3.46,2.40,1.09,0.26,1.44,2.26,2.60,2.42,1.75,0.70,0.57,1.88,3.02,3.78,4.00,3.58,2.50,0.86,1.16,3.32,5.33,6.86,7.66,7.54,6.43,4.46,1.91,0.84,3.39,5.38,6.60,6.97,6.56,5.56,4.20,2.72,1.33,0.15,0.74,1.36,1.79,2.09,2.31,2.46,2.52,2.49,2.37,2.16,1.89,1.55,1.16,0.73,0.26,0.29,0.91,1.61,2.33,2.99,3.46,3.62,3.36,2.62,1.39,
3.37,0.24,4.17,7.89,10.88,12.71,13.05,11.76,8.89,4.72,0.23,5.33,9.89,13.30,15.12,15.17,13.49,10.40,6.34,1.87,2.46,6.16,8.90,10.49,10.95,10.43,9.20,7.57,5.82,4.12,2.56,1.12,0.24,1.61,3.02,4.46,5.87,7.14,8.13,8.68,8.66,7.98,6.61,4.59,2.05,0.77,3.62,6.23,8.33,9.74,10.30,9.95,8.72,6.76,4.28,1.57,1.12,3.53,5.47,6.83,7.58,7.77,7.50,6.88,5.97,4.81,3.43,1.84,0.08,1.76,3.55,5.15,6.39,7.19,7.46,7.21,6.45,5.24,3.68,1.87,0.03,1.90,3.61,5.05,6.12,6.76,6.92,6.59,5.80,4.63,3.16,1.49,0.28,2.04,3.69,5.10,6.13,6.68,6.64,5.97,4.71,2.97,0.95,1.11,2.93,4.28,5.03,5.11,4.56,3.50,2.08,0.50,1.01,2.27,3.10,3.41,3.16,2.39,1.23,0.14,1.52,2.71,3.56,3.97,3.89,3.35,2.41,1.16,
0.75,3.04,4.64,5.52,5.75,5.45,4.71,3.64,2.36,1.00,0.30,1.38,2.17,2.63,2.74,2.56,2.14,1.53,0.78,0.04,0.87,1.62,2.23,2.61,2.71,2.50,1.98,1.17,0.16,0.92,1.93,2.71,3.13,3.12,2.66,1.83,0.80,0.24,1.06,1.53,1.59,1.27,0.68,0.01,0.61,0.96,0.97,0.62,0.01,0.71,1.34,1.72,1.75,1.40,0.75,0.05,0.80,1.34,1.53,1.33,0.77,0.02,0.87,1.59,1.99,1.99,1.57,0.81,0.16,1.17,2.06,2.67,2.92,2.79,2.32,1.58,0.66,0.36,1.38,2.33,3.12,3.67,3.91,3.76,3.21,2.27,0.99,0.54,2.20,3.83,5.24,6.24,6.67,6.43,5.45,3.79,1.57,0.97,3.54,5.83,7.53,8.43,8.41,7.50,5.84,3.69,1.37,0.81,2.57,3.78,4.39,4.48,4.21,3.77,3.32,3.02,2.92,3.01,3.21,3.39,3.35,2.94,2.03,0.59,1.28,3.39,5.46,7.15,
5.71,7.32,8.45,8.93,8.65,7.53,5.64,3.14,0.30,2.57,5.10,6.98,7.97,7.97,7.06,5.44,3.40,1.29,0.56,1.92,2.67,2.82,2.51,1.95,1.40,1.05,1.04,1.36,1.88,2.43,2.78,2.74,2.22,1.22,0.12,1.60,2.96,4.01,4.60,4.65,4.19,3.28,2.03,0.59,0.91,2.31,3.47,4.28,4.66,4.57,4.03,3.10,1.90,0.57,0.75,1.94,2.90,3.56,3.86,3.75,3.25,2.40,1.32,0.13,1.01,1.94,2.54,2.72,2.45,1.77,0.75,0.50,1.81,2.98,3.80,4.09,3.72,2.67,1.02,1.06,3.27,5.30,6.82,7.57,7.38,6.20,4.14,1.45,1.51,4.34,6.65,8.12,8.57,7.95,6.37,4.06,1.36,1.34,3.67,5.32,6.09,5.94,4.95,3.33,1.38,0.55,2.14,3.12,3.37,2.92,1.94,0.66,0.65,1.75,2.47,2.74,2.55,1.98,1.13,0.15,0.83,1.67,2.27,2.54,2.49,2.15,1.63,1.03,
2.47,0.66,4.18,7.64,10.54,12.42,12.89,11.76,9.05,5.01,0.15,4.86,9.28,12.48,13.99,13.62,11.48,7.95,3.62,0.87,4.89,7.92,9.64,9.95,8.95,6.95,4.39,1.70,0.70,2.53,3.67,4.13,4.00,3.43,2.63,1.75,0.93,0.25,0.25,0.57,0.75,0.82,0.84,0.84,0.84,0.84,0.85,0.82,0.71,0.50,0.16,0.29,0.82,1.34,1.78,2.08,2.19,2.09,1.75,1.21,0.49,0.34,1.19,1.95,2.51,2.79,2.75,2.40,1.75,0.85,0.20,1.17,1.81,1.89,1.28,0.01,1.76,3.61,5.07,5.67,5.05,3.08,0.08,4.00,8.01,11.34,13.28,13.32,11.28,7.32,2.00,3.90,9.47,13.87,16.48,16.95,15.26,11.67,6.70,1.04,4.56,9.44,13.04,15.05,15.32,13.94,11.17,7.39,3.09,1.25,5.15,8.28,10.41,11.48,11.57,10.80,9.33,7.31,4.90,2.26,0.46,3.13,5.59,7.70,9.33,10.35,10.68,10.29,
1.82,0.14,2.15,3.81,4.84,5.25,5.28,5.38,5.95,7.26,9.22,11.43,13.18,13.65,12.10,8.13,1.79,6.32,15.17,23.39,29.58,32.52,31.45,26.24,17.39,6.04,6.27,17.80,26.93,32.47,33.79,30.97,24.70,16.15,6.75,2.13,9.32,14.14,16.37,16.31,14.54,11.80,8.83,6.18,4.22,3.04,2.55,2.50,2.54,2.36,1.72,0.53,1.13,3.04,4.88,6.33,7.17,7.32,6.80,5.81,4.62,3.53,2.86,2.82,3.50,4.81,6.48,8.11,9.19,9.17,7.61,4.24,0.95,7.59,15.00,22.24,28.25,32.05,32.91,30.47,24.82,16.46,6.23,4.82,15.59,25.06,32.44,37.19,39.07,38.15,34.75,29.35,22.51,14.80,6.67,1.55,9.68,17.60,25.18,32.14,38.05,42.33,44.30,43.36,39.12,31.51,20.87,7.91,6.31,20.49,33.26,43.37,49.82,52.04,49.92,43.84,34.60,23.30,11.12,0.79,11.47,20.28,26.87,31.20,33.44,33.88,32.87,30.70,
1.13,3.71,7.69,11.20,14.62,18.18,21.85,25.29,27.92,29.08,28.12,24.66,18.60,10.28,0.40,10.04,19.89,27.96,33.27,35.16,33.40,28.23,20.33,10.68,0.46,9.16,17.13,22.68,25.39,25.23,22.51,17.82,11.93,5.68,0.17,5.03,8.57,10.65,11.37,10.92,9.59,7.71,5.61,3.56,1.82,0.52,0.31,0.70,0.80,0.75,0.72,0.82,1.07,1.45,1.92,2.40,2.80,3.08,3.22,3.20,3.03,2.73,2.29,1.72,1.04,0.25,0.59,1.40,2.07,2.51,2.67,2.55,2.19,1.70,1.21,0.84,0.68,0.75,1.00,1.34,1.64,1.77,1.68,1.33,0.75,0.02,0.77,1.52,2.13,2.53,2.68,2.60,2.34,2.00,1.69,1.50,1.48,1.60,1.76,1.84,1.67,1.15,0.20,1.17,2.86,4.67,6.35,7.60,8.16,7.84,6.58,4.46,1.65,1.56,4.82,7.76,10.06,11.47,11.81,11.03,9.18,6.42,3.01,0.71,4.35,7.53,9.92,11.29,
3.64,3.85,3.39,2.00,0.38,3.60,7.27,10.85,13.70,15.23,15.00,12.85,8.91,3.60,2.43,8.40,13.50,17.07,18.67,18.18,15.76,11.83,7.02,1.99,2.64,6.38,8.93,10.13,9.87,8.18,5.35,1.99,1.03,2.82,2.64,0.17,4.38,10.25,16.23,20.90,22.95,21.45,16.08,7.23,4.05,16.25,27.61,36.45,41.46,41.85,37.53,29.02,17.44,4.26,8.90,20.47,29.20,34.33,35.61,33.34,28.22,21.26,13.52,5.98,0.62,5.85,9.59,11.96,13.19,13.57,13.34,12.66,11.66,10.35,8.76,6.88,4.76,2.50,0.22,1.89,3.70,5.09,6.00,6.38,6.26,5.72,4.88,3.89,2.92,2.10,1.54,1.30,1.38,1.71,2.13,2.46,2.50,2.08,1.12,0.37,2.26,4.37,6.47,8.32,9.66,10.26,9.90,8.49,6.04,2.71,1.20,5.26,9.01,11.96,13.72,14.03,12.82,10.21,6.52,2.18,2.32,6.48,9.82,11.98,12.76,12.10,10.12,7.10,
5.46,6.88,7.39,6.89,5.47,3.30,0.68,2.08,4.63,6.64,7.83,8.04,7.23,5.50,3.09,0.29,2.53,5.00,6.81,7.71,7.61,6.55,4.71,2.37,0.11,2.37,4.10,5.07,5.23,4.66,3.59,2.29,1.05,0.05,0.59,0.88,0.90,0.74,0.53,0.36,0.29,0.32,0.44,0.62,0.82,1.05,1.28,1.53,1.77,1.97,2.07,2.03,1.79,1.30,0.54,0.47,1.65,2.86,3.94,4.72,5.08,4.92,4.24,3.11,1.67,0.09,1.41,2.68,3.65,4.29,4.65,4.77,4.71,4.50,4.16,3.68,3.00,2.05,0.78,0.83,2.73,4.77,6.74,8.40,9.45,9.67,8.90,7.12,4.42,1.01,2.75,6.48,9.73,12.05,13.10,12.68,10.80,7.68,3.72,0.57,4.64,8.00,10.30,11.37,11.19,9.86,7.61,4.72,1.49,1.72,4.61,6.89,8.36,8.88,8.42,7.03,4.85,2.15,0.73,3.40,5.51,6.77,7.05,6.34,4.79,2.65,0.26,2.03,
3.70,2.64,1.29,0.12,1.38,2.25,2.61,2.41,1.71,0.63,0.63,1.83,2.72,3.08,2.80,1.87,0.41,1.29,2.91,4.12,4.65,4.37,3.29,1.57,0.48,2.48,4.06,4.92,4.92,4.08,2.60,0.77,1.05,2.55,3.52,3.88,3.66,2.98,2.00,0.89,0.21,1.21,2.04,2.65,3.00,3.01,2.65,1.89,0.79,0.48,1.67,2.46,2.64,2.14,1.08,0.27,1.54,2.41,2.62,2.09,0.90,0.73,2.46,3.94,4.88,5.12,4.62,3.49,1.89,0.08,1.69,3.19,4.26,4.85,4.97,4.71,4.18,3.50,2.78,2.09,1.44,0.80,0.12,0.66,1.56,2.56,3.58,4.53,5.30,5.74,5.74,5.20,4.10,2.50,0.53,1.58,3.58,5.17,6.12,6.26,5.57,4.12,2.16,0.00,2.01,3.54,4.35,4.31,3.42,1.83,0.20,2.33,4.16,5.33,5.58,4.80,3.06,0.67,1.95,4.33,6.06,6.87,6.67,5.54,3.73,1.56,0.61,2.47,
4.54,3.80,2.47,0.58,1.68,3.99,5.90,6.92,6.68,5.01,2.02,1.85,5.92,9.39,11.51,11.74,9.87,6.07,0.87,4.94,10.44,14.76,17.19,17.31,15.09,10.85,5.22,0.97,6.87,11.71,14.90,16.16,15.47,13.10,9.52,5.31,1.10,2.60,5.40,7.10,7.72,7.41,6.47,5.20,3.90,2.75,1.83,1.14,0.60,0.11,0.38,0.87,1.30,1.60,1.69,1.53,1.18,0.73,0.39,0.32,0.68,1.46,2.55,3.70,4.59,4.87,4.31,2.84,0.59,2.12,4.82,7.02,8.32,8.48,7.47,5.47,2.85,0.06,2.49,4.44,5.59,5.90,5.47,4.45,3.08,1.61,0.25,0.85,1.58,1.94,1.98,1.77,1.40,0.97,0.57,0.25,0.02,0.13,0.24,0.34,0.47,0.63,0.82,1.04,1.28,1.50,1.67,1.70,1.56,1.20,0.62,0.16,1.07,2.03,2.95,3.73,4.29,4.58,4.55,4.19,3.51,2.53,1.28,0.18,1.77,3.41,4.98,6.34,
2.03,0.06,1.94,3.35,4.11,4.20,3.74,2.96,2.12,1.44,1.05,0.95,1.02,1.07,0.94,0.46,0.40,1.61,3.00,4.30,5.24,5.59,5.23,4.15,2.46,0.40,1.78,3.77,5.30,6.15,6.25,5.59,4.33,2.67,0.85,0.89,2.38,3.49,4.20,4.49,4.37,3.87,3.02,1.86,0.48,1.00,2.41,3.58,4.35,4.59,4.26,3.38,2.02,0.27,1.69,3.63,5.25,6.26,6.39,5.48,3.56,0.82,2.34,5.42,7.93,9.40,9.55,8.27,5.69,2.18,1.75,5.50,8.50,10.33,10.76,9.81,7.72,4.88,1.77,1.16,3.54,5.16,5.92,5.89,5.26,4.28,3.24,2.36,1.80,1.58,1.64,1.81,1.91,1.78,1.32,0.52,0.56,1.78,3.02,4.13,5.01,5.55,5.66,5.33,4.57,3.50,2.25,0.95,0.32,1.48,2.54,3.48,4.29,4.94,5.37,5.53,5.36,4.86,4.03,2.93,1.63,0.21,1.26,2.71,4.04,5.19,6.06,6.56,
1.66,1.90,1.80,1.34,0.56,0.46,1.53,2.45,3.00,3.03,2.48,1.36,0.17,1.90,3.53,4.76,5.36,5.19,4.24,2.67,0.69,1.36,3.17,4.44,4.97,4.70,3.73,2.27,0.66,0.81,1.84,2.29,2.12,1.43,0.42,0.69,1.66,2.32,2.55,2.31,1.65,0.64,0.60,1.94,3.21,4.26,4.92,5.08,4.66,3.64,2.10,0.18,1.89,3.87,5.49,6.54,6.87,6.43,5.25,3.49,1.36,0.87,2.91,4.52,5.54,5.88,5.55,4.65,3.37,1.91,0.47,0.78,1.72,2.32,2.57,2.55,2.34,2.04,1.73,1.46,1.23,1.01,0.76,0.46,0.09,0.31,0.70,1.03,1.26,1.37,1.35,1.26,1.14,1.04,0.97,0.93,0.86,0.70,0.40,0.08,0.73,1.48,2.21,2.78,3.02,2.80,2.09,0.95,0.49,1.98,3.27,4.11,4.30,3.76,2.54,0.80,1.19,3.07,4.50,5.21,5.03,3.98,2.21,0.04,2.14,3.97,5.14,5.51,
2.10,2.25,2.18,1.91,1.49,1.00,0.52,0.14,0.07,0.11,0.04,0.07,0.14,0.08,0.12,0.43,0.78,1.11,1.39,1.61,1.82,2.05,2.35,2.70,3.00,3.14,2.96,2.34,1.22,0.37,2.30,4.36,6.29,7.82,8.73,8.85,8.10,6.47,4.08,1.11,2.14,5.36,8.21,10.36,11.57,11.70,10.68,8.60,5.70,2.31,1.15,4.26,6.68,8.19,8.71,8.31,7.17,5.56,3.79,2.15,0.87,0.06,0.29,0.31,0.16,0.06,0.17,0.62,1.49,2.75,4.32,5.96,7.37,8.20,8.14,6.98,4.70,1.47,2.36,6.25,9.61,11.87,12.60,11.59,8.91,4.92,0.22,4.46,8.36,10.84,11.47,10.17,7.19,3.05,1.47,5.58,8.53,9.78,9.10,6.60,2.76,1.70,5.91,9.05,10.54,10.09,7.80,4.10,0.31,4.62,8.04,9.99,10.18,8.64,5.76,2.14,1.54,4.61,6.60,7.24,6.56,4.79,2.37,0.20,2.44,3.94,4.48,4.01,
5.32,6.70,7.52,7.69,7.15,5.87,3.87,1.30,1.64,4.60,7.19,8.97,9.58,8.81,6.69,3.52,0.21,3.92,7.04,9.15,10.01,9.63,8.19,6.00,3.44,0.89,1.38,3.18,4.46,5.26,5.69,5.88,5.90,5.79,5.51,4.95,4.02,2.67,0.92,1.15,3.35,5.51,7.42,8.91,9.81,9.96,9.26,7.65,5.21,2.09,1.46,5.07,8.37,10.96,12.55,12.93,12.08,10.12,7.33,4.09,0.81,2.15,4.57,6.33,7.45,8.03,8.20,8.07,7.71,7.14,6.32,5.16,3.60,1.64,0.65,3.11,5.52,7.65,9.26,10.14,10.16,9.30,7.61,5.26,2.47,0.50,3.38,5.94,8.02,9.51,10.38,10.68,10.47,9.78,8.64,6.99,4.78,1.95,1.46,5.35,9.44,13.36,16.67,18.89,19.63,18.63,15.83,11.41,5.75,0.61,7.03,12.88,17.57,20.67,21.94,21.35,19.09,15.50,11.04,6.19,1.41,2.93,6.59,9.46,11.50,12.77,13.34,13.32,
9.98,12.98,15.31,16.72,16.81,15.13,11.33,5.37,2.28,10.68,18.44,24.03,26.04,23.57,16.42,5.27,8.38,22.46,34.64,42.82,45.42,41.66,31.70,16.55,2.02,21.79,40.37,55.52,65.37,68.53,64.13,52.12,33.66,11.16,12.10,32.56,47.17,54.01,52.70,44.48,31.86,18.08,6.35,0.85,2.30,1.77,9.75,19.06,26.74,30.12,27.36,17.89,2.51,16.72,36.91,54.82,67.54,72.95,70.12,59.39,42.25,21.05,1.47,22.62,40.13,52.44,58.82,59.33,54.71,46.15,35.07,22.89,10.80,0.29,9.77,17.34,22.88,26.45,28.21,28.37,27.18,24.86,21.61,17.59,12.92,7.74,2.19,3.56,9.24,14.51,18.95,22.13,23.67,23.34,21.08,17.05,11.61,5.26,1.38,7.69,13.09,17.16,19.61,20.31,19.35,16.91,13.35,9.04,4.38,0.26,4.59,8.35,11.37,13.51,14.73,15.03,14.48,13.18,11.30,8.99,6.39,3.65,0.85,1.91,4.57,7.09,9.44,11.62,
8.03,17.45,25.92,31.62,33.20,30.26,23.51,14.62,5.72,1.12,4.49,4.00,0.42,4.48,8.38,9.04,4.91,4.35,17.74,32.94,46.84,56.12,58.00,50.91,34.85,11.56,15.76,42.92,65.55,79.83,83.26,75.14,56.69,30.82,1.49,26.95,50.57,66.40,72.85,69.80,58.54,41.45,21.48,1.71,15.24,27.50,34.19,35.37,31.97,25.44,17.56,10.00,4.16,0.86,0.31,2.12,5.43,9.09,11.92,12.93,11.49,7.45,1.15,6.65,14.91,22.49,28.32,31.57,31.75,28.75,22.84,14.64,5.06,4.87,14.11,21.78,27.21,30.09,30.40,28.38,24.44,19.03,12.62,5.62,1.61,8.73,15.42,21.34,26.14,29.40,30.74,29.79,26.38,20.50,12.59,3.90,3.39,7.03,6.08,1.74,2.80,3.35,3.85,20.73,46.38,76.87,105.80,125.71,129.72,113.20,75.12,18.52,49.73,120.03,181.72,224.93,242.41,230.72,190.86,128.00,50.62,31.00,106.39,166.53,205.10,219.22,209.51,179.68,
82.83,65.76,42.09,14.95,12.38,36.93,56.30,68.95,74.22,72.27,64.00,50.84,34.49,16.77,0.61,16.20,28.88,37.96,43.12,44.41,42.19,37.04,29.71,21.03,11.86,2.98,4.96,11.48,16.33,19.41,20.83,20.78,19.53,17.38,14.61,11.48,8.18,4.91,1.79,1.07,3.63,5.89,7.84,9.48,10.77,11.64,11.99,11.74,10.80,9.15,6.81,3.91,0.66,2.69,5.84,8.53,10.56,11.81,12.26,11.95,10.94,9.30,7.08,4.33,1.17,2.24,5.64,8.73,11.22,12.88,13.57,13.25,12.01,10.00,7.45,4.60,1.62,1.35,4.24,6.98,9.52,11.75,13.55,14.73,15.10,14.48,12.74,9.88,6.02,1.43,3.50,8.29,12.48,15.68,17.56,17.94,16.79,14.25,10.60,6.18,1.45,3.17,7.23,10.39,12.41,13.21,12.85,11.51,9.49,7.10,4.67,2.43,0.52,1.01,2.25,3.35,4.49,5.81,7.36,9.06,10.68,11.88,12.30,11.65,9.77,6.77,2.93,1.24,
3.92,7.23,9.46,10.13,9.19,7.01,4.38,2.26,1.48,2.50,5.21,8.94,12.57,14.78,14.36,10.55,3.25,6.87,18.43,29.59,38.37,43.04,42.48,36.37,25.30,10.65,5.66,21.49,34.81,44.03,48.17,46.95,40.83,30.81,18.34,5.08,7.38,17.67,24.87,28.57,28.88,26.34,21.82,16.26,10.59,5.50,1.43,1.47,3.32,4.39,5.04,5.63,6.39,7.43,8.71,10.01,11.03,11.46,11.00,9.52,7.00,3.61,0.35,4.46,8.29,11.42,13.50,14.29,13.71,11.85,8.95,5.35,1.46,2.31,5.62,8.21,9.91,10.63,10.35,9.14,7.13,4.56,1.69,1.14,3.60,5.41,6.37,6.44,5.71,4.38,2.73,1.08,0.30,1.25,1.71,1.77,1.56,1.23,0.94,0.75,0.70,0.77,0.92,1.07,1.19,1.26,1.29,1.27,1.17,0.95,0.56,0.02,0.80,1.72,2.68,3.57,4.27,4.66,4.65,4.17,3.20,1.74,0.13,2.28,4.47,6.41,7.76,8.27,
2.00,0.90,0.21,1.12,1.72,1.97,1.97,1.86,1.77,1.80,1.95,2.15,2.26,2.11,1.57,0.56,0.87,2.59,4.41,6.03,7.19,7.58,7.02,5.45,2.97,0.10,3.34,6.26,8.43,9.50,9.31,7.92,5.58,2.68,0.27,2.80,4.55,5.30,5.05,3.97,2.40,0.73,0.67,1.50,1.64,1.09,0.01,1.38,2.75,3.83,4.42,4.43,3.83,2.70,1.17,0.59,2.40,4.07,5.43,6.38,6.82,6.71,6.06,4.90,3.31,1.39,0.70,2.82,4.79,6.44,7.59,8.10,7.86,6.83,5.08,2.76,0.14,2.45,4.68,6.24,6.97,6.78,5.78,4.14,2.18,0.21,1.47,2.63,3.15,3.01,2.27,1.12,0.22,1.48,2.39,2.76,2.45,1.48,0.03,1.84,3.65,5.11,5.95,5.94,5.05,3.39,1.22,1.09,3.15,4.65,5.41,5.42,4.79,3.76,2.58,1.49,0.68,0.23,0.13,0.28,0.50,0.61,0.45,0.11,1.07,2.35,3.76,5.07,
0.73,0.46,1.63,2.73,3.72,4.57,5.22,5.59,5.58,5.12,4.19,2.83,1.16,0.65,2.40,3.94,5.19,6.10,6.65,6.82,6.59,5.90,4.74,3.12,1.13,1.04,3.19,5.07,6.49,7.32,7.46,6.90,5.67,3.89,1.77,0.44,2.45,3.98,4.85,4.97,4.40,3.31,1.96,0.63,0.44,1.08,1.26,1.02,0.53,0.01,0.40,0.50,0.25,0.31,1.05,1.79,2.32,2.49,2.22,1.50,0.44,0.78,1.98,2.94,3.51,3.60,3.19,2.31,1.09,0.33,1.76,2.99,3.83,4.11,3.75,2.79,1.32,0.43,2.22,3.74,4.74,5.04,4.56,3.37,1.64,0.40,2.46,4.26,5.52,6.08,5.84,4.82,3.13,0.96,1.40,3.63,5.41,6.45,6.57,5.73,4.02,1.70,0.87,3.28,5.10,6.02,5.87,4.68,2.68,0.32,1.93,3.61,4.39,4.14,2.98,1.19,0.80,2.52,3.57,3.74,2.97,1.44,0.53,2.53,4.14,5.03,5.00,4.05,
6.67,5.81,4.56,3.13,1.70,0.37,0.85,2.00,3.12,4.21,5.18,5.91,6.23,5.99,5.12,3.61,1.61,0.69,2.98,5.01,6.53,7.37,7.47,6.86,5.66,4.02,2.14,0.17,1.70,3.36,4.68,5.58,5.99,5.89,5.30,4.29,2.98,1.53,0.09,1.23,2.31,3.08,3.50,3.56,3.32,2.82,2.15,1.40,0.62,0.13,0.82,1.41,1.87,2.14,2.17,1.90,1.32,0.47,0.54,1.56,2.41,2.93,3.00,2.57,1.70,0.51,0.79,1.93,2.65,2.71,2.06,0.86,0.55,1.73,2.25,1.82,0.39,1.86,4.50,6.94,8.60,8.95,7.72,4.92,0.87,3.84,8.44,12.19,14.46,14.87,13.40,10.31,6.10,1.45,2.97,6.58,8.99,10.05,9.85,8.68,6.90,4.93,3.09,1.61,0.57,0.07,0.45,0.75,1.10,1.58,2.16,2.74,3.20,3.43,3.33,2.88,2.13,1.18,0.20,0.65,1.23,1.48,1.41,1.12,0.72,0.35,0.08,0.05,
0.68,3.28,5.59,7.35,8.38,8.54,7.79,6.19,3.90,1.16,1.72,4.43,6.64,8.09,8.59,8.08,6.59,4.25,1.33,1.83,4.85,7.32,8.91,9.39,8.69,6.91,4.30,1.22,1.90,4.66,6.72,7.85,7.96,7.11,5.49,3.39,1.15,0.93,2.60,3.70,4.18,4.08,3.46,2.47,1.25,0.05,1.29,2.32,3.04,3.34,3.19,2.60,1.63,0.37,1.02,2.35,3.47,4.24,4.56,4.42,3.87,3.02,2.05,1.11,0.35,0.15,0.41,0.53,0.64,0.90,1.42,2.28,3.42,4.72,5.97,6.90,7.27,6.88,5.69,3.74,1.26,1.49,4.18,6.51,8.23,9.19,9.31,8.65,7.35,5.59,3.58,1.52,0.45,2.23,3.73,4.91,5.75,6.26,6.43,6.27,5.76,4.92,3.76,2.35,0.78,0.80,2.26,3.43,4.21,4.55,4.48,4.08,3.47,2.73,1.94,1.10,0.26,0.57,1.32,1.94,2.35,2.52,2.41,2.01,1.35,0.52,0.42,1.33,
8.57,7.26,5.23,2.73,0.09,2.29,4.06,4.95,4.85,3.87,2.30,0.55,0.90,1.66,1.48,0.32,1.59,3.82,5.84,7.13,7.29,6.14,3.74,0.42,3.33,6.92,9.76,11.39,11.55,10.18,7.49,3.88,0.11,3.89,6.96,8.94,9.69,9.23,7.79,5.72,3.37,1.09,0.90,2.46,3.56,4.22,4.51,4.52,4.32,3.96,3.46,2.80,1.94,0.89,0.34,1.69,3.03,4.24,5.16,5.67,5.63,5.00,3.75,1.99,0.15,2.42,4.58,6.35,7.54,7.98,7.61,6.49,4.73,2.52,0.08,2.40,4.72,6.74,8.31,9.30,9.57,9.04,7.64,5.39,2.43,1.00,4.56,7.81,10.32,11.71,11.75,10.39,7.82,4.40,0.64,2.97,5.95,8.00,8.98,8.91,7.96,6.34,4.32,2.18,0.16,1.57,2.87,3.69,4.03,3.95,3.54,2.96,2.34,1.82,1.48,1.31,1.26,1.22,1.07,0.72,0.12,0.70,1.67,2.65,3.48,4.02,4.11,3.71,
3.89,4.11,3.75,2.94,1.93,0.97,0.29,0.07,0.37,1.14,2.18,3.20,3.86,3.87,3.09,1.52,0.65,3.13,5.53,7.51,8.75,9.05,8.36,6.71,4.29,1.36,1.74,4.66,7.08,8.75,9.49,9.24,8.07,6.17,3.79,1.24,1.20,3.30,4.92,6.01,6.55,6.59,6.14,5.23,3.93,2.31,0.50,1.34,3.03,4.43,5.39,5.83,5.72,5.09,4.01,2.61,1.03,0.58,2.08,3.39,4.41,5.07,5.30,5.06,4.32,3.14,1.64,0.02,1.52,2.74,3.49,3.68,3.34,2.60,1.68,0.78,0.11,0.22,0.21,0.09,0.56,1.06,1.44,1.62,1.53,1.14,0.46,0.44,1.49,2.56,3.54,4.29,4.67,4.57,3.95,2.82,1.29,0.46,2.21,3.71,4.76,5.21,4.99,4.14,2.80,1.17,0.48,1.88,2.82,3.13,2.76,1.80,0.44,1.03,2.30,3.11,3.25,2.67,1.47,0.13,1.81,3.24,4.17,4.44,4.06,3.12,1.82,0.41,
8.11,6.84,5.37,3.70,1.86,0.10,2.03,3.74,5.04,5.74,5.79,5.23,4.20,2.95,1.76,0.91,0.58,0.83,1.56,2.53,3.41,3.87,3.64,2.58,0.71,1.77,4.53,7.16,9.24,10.45,10.57,9.56,7.55,4.79,1.60,1.69,4.77,7.38,9.32,10.47,10.77,10.21,8.84,6.81,4.27,1.46,1.39,4.03,6.23,7.79,8.56,8.50,7.65,6.17,4.28,2.24,0.31,1.32,2.54,3.27,3.54,3.42,3.06,2.61,2.22,2.00,1.96,2.00,1.94,1.61,0.93,0.09,1.27,2.37,3.14,3.37,2.96,1.95,0.53,1.01,2.36,3.23,3.45,2.96,1.81,0.19,1.64,3.37,4.72,5.47,5.48,4.76,3.40,1.59,0.41,2.35,3.99,5.13,5.67,5.56,4.86,3.72,2.35,0.99,0.13,0.88,1.20,1.18,0.98,0.82,0.90,1.32,2.08,3.04,4.00,4.73,5.00,4.69,3.74,2.27,0.46,1.45,3.22,4.67,5.67,6.17,6.17,5.69,
0.85,0.46,0.05,0.40,0.91,1.43,1.86,2.08,2.01,1.60,0.88,0.08,1.14,2.15,2.95,3.37,3.29,2.68,1.57,0.10,1.53,3.07,4.31,5.03,5.12,4.54,3.39,1.83,0.14,1.44,2.68,3.45,3.73,3.61,3.24,2.80,2.41,2.11,1.88,1.66,1.36,0.92,0.32,0.44,1.28,2.13,2.87,3.40,3.60,3.43,2.91,2.12,1.22,0.37,0.30,0.68,0.69,0.37,0.21,0.88,1.42,1.63,1.36,0.53,0.78,2.41,4.10,5.55,6.47,6.69,6.12,4.80,2.88,0.58,1.82,4.06,5.89,7.13,7.69,7.57,6.85,5.64,4.06,2.24,0.27,1.75,3.68,5.36,6.61,7.27,7.23,6.46,5.06,3.22,1.20,0.73,2.30,3.33,3.74,3.59,3.02,2.26,1.55,1.10,1.07,1.48,2.26,3.22,4.09,4.60,4.53,3.73,2.20,0.08,2.38,4.86,7.02,8.58,9.35,9.27,8.38,6.82,4.78,2.46,0.06,2.28,4.44,6.33,
0.55,0.08,0.40,0.76,0.89,0.78,0.47,0.05,0.38,0.69,0.80,0.65,0.25,0.38,1.14,1.92,2.56,2.90,2.80,2.16,1.02,0.50,2.19,3.76,4.97,5.62,5.61,4.92,3.62,1.85,0.21,2.33,4.30,5.90,6.96,7.35,7.00,5.93,4.22,2.05,0.37,2.79,4.94,6.59,7.55,7.76,7.20,5.97,4.21,2.10,0.16,2.37,4.32,5.80,6.66,6.79,6.18,4.91,3.16,1.19,0.76,2.46,3.74,4.51,4.77,4.57,4.05,3.34,2.61,1.99,1.51,1.06,0.48,0.44,1.84,3.71,5.88,8.05,9.77,10.63,10.28,8.56,5.48,1.31,3.52,8.41,12.71,15.81,17.27,16.88,14.67,10.92,6.12,0.89,4.13,8.38,11.46,13.19,13.61,12.94,11.49,9.62,7.64,5.75,4.00,2.32,0.59,1.33,3.54,6.02,8.61,11.04,12.95,14.01,13.97,12.69,10.23,6.80,2.75,1.51,5.54,9.00,11.63,13.32,14.04,13.87,12.88,11.18,
23.81,28.22,31.34,32.75,31.95,28.29,21.17,10.24,4.25,21.35,39.29,55.73,68.05,73.82,71.31,59.88,40.18,14.18,15.06,43.87,68.48,85.61,93.02,89.79,76.52,55.20,28.81,0.88,25.16,46.42,60.97,67.98,67.70,61.25,50.31,36.84,22.70,9.47,1.80,10.62,17.00,21.32,24.15,26.03,27.35,28.31,28.85,28.73,27.60,25.10,20.95,15.05,7.56,1.10,10.26,19.08,26.68,32.23,35.13,35.08,32.14,26.70,19.43,11.17,2.77,5.00,11.57,16.59,19.92,21.61,21.83,20.80,18.74,15.88,12.38,8.41,4.09,0.41,4.91,9.12,12.68,15.22,16.41,16.04,14.09,10.73,6.32,1.37,3.53,7.80,10.93,12.58,12.58,11.04,8.26,4.69,0.86,2.72,5.59,7.45,8.13,7.65,6.18,4.05,1.71,0.41,1.91,2.53,2.19,1.02,0.64,2.35,3.61,4.01,3.27,1.37,1.50,4.86,8.13,10.65,11.87,11.45,9.38,5.94,1.65,2.83,6.86,9.90,
3.02,5.01,6.73,8.17,9.28,10.01,10.28,9.95,8.82,6.69,3.35,1.27,7.04,13.56,20.12,25.79,29.50,30.26,27.36,20.57,10.28,2.55,16.42,29.58,40.24,46.86,48.45,44.63,35.79,22.92,7.55,8.48,23.27,35.12,42.72,45.36,42.96,36.13,26.05,14.26,2.47,7.78,15.33,19.57,20.50,18.66,15.01,10.71,6.89,4.39,3.66,4.67,6.92,9.60,11.76,12.53,11.31,7.89,2.48,4.31,11.60,18.39,23.72,26.79,27.12,24.59,19.45,12.30,3.97,4.57,12.36,18.61,22.74,24.48,23.83,21.07,16.70,11.33,5.67,0.33,4.18,7.52,9.57,10.40,10.24,9.39,8.21,7.04,6.12,5.60,5.51,5.69,5.90,5.84,5.21,3.85,1.75,0.96,3.97,6.94,9.47,11.25,12.06,11.80,10.52,8.38,5.63,2.62,0.34,2.94,4.96,6.29,6.91,6.92,6.48,5.81,5.08,4.43,3.87,3.35,2.76,1.98,0.93,0.42,2.01,3.72,5.35,6.70,
9.85,18.72,26.20,31.42,33.77,33.00,29.23,22.96,14.99,6.22,2.42,10.13,16.31,20.61,22.94,23.41,22.29,19.97,16.85,13.27,9.48,5.64,1.81,1.96,5.58,8.90,11.71,13.81,15.02,15.26,14.53,12.95,10.66,7.88,4.84,1.76,1.16,3.77,5.97,7.72,9.02,9.86,10.25,10.19,9.68,8.74,7.40,5.69,3.65,1.35,1.11,3.60,5.91,7.83,9.15,9.72,9.52,8.61,7.15,5.34,3.37,1.41,0.39,1.93,3.15,4.05,4.64,4.95,5.05,4.96,4.74,4.38,3.90,3.31,2.60,1.78,0.88,0.07,1.00,1.84,2.53,3.03,3.29,3.36,3.29,3.17,3.05,2.98,2.91,2.81,2.59,2.22,1.66,0.86,0.19,1.46,2.89,4.33,5.62,6.59,7.09,7.02,6.30,4.90,2.88,0.37,2.36,4.98,7.13,8.47,8.76,7.91,6.02,3.38,0.43,2.29,4.28,5.19,4.88,3.51,1.43,0.79,2.59,3.48,3.20,1.74,0.62,3.35,
1.52,1.76,1.85,1.62,0.94,0.19,1.67,3.24,4.59,5.40,5.43,4.56,2.88,0.66,1.71,3.76,5.10,5.46,4.75,3.06,0.70,1.89,4.24,5.89,6.53,6.00,4.34,1.81,1.18,4.10,6.47,7.89,8.17,7.34,5.64,3.43,1.13,0.88,2.36,3.20,3.45,3.31,3.01,2.78,2.76,2.99,3.42,3.92,4.29,4.35,3.94,2.99,1.55,0.26,2.23,4.12,5.72,6.87,7.46,7.44,6.83,5.68,4.10,2.21,0.17,1.89,3.83,5.50,6.79,7.55,7.70,7.16,5.96,4.15,1.90,0.56,2.95,4.97,6.36,6.94,6.64,5.53,3.81,1.76,0.32,2.15,3.51,4.29,4.46,4.08,3.25,2.12,0.81,0.52,1.75,2.74,3.42,3.73,3.67,3.26,2.52,1.52,0.34,0.93,2.17,3.29,4.15,4.68,4.79,4.41,3.54,2.20,0.47,1.48,3.43,5.10,6.18,6.47,5.84,4.32,2.11,0.46,2.97,5.03,6.31,6.59,5.85,4.21,
1.93,0.06,1.80,3.18,4.14,4.71,4.98,5.04,4.95,4.71,4.25,3.47,2.31,0.74,1.14,3.18,5.12,6.72,7.72,7.95,7.36,6.01,4.07,1.78,0.56,2.70,4.44,5.64,6.26,6.32,5.91,5.15,4.13,2.94,1.65,0.30,1.04,2.29,3.35,4.13,4.52,4.47,3.97,3.09,1.97,0.75,0.40,1.37,2.04,2.35,2.31,1.96,1.39,0.74,0.15,0.24,0.33,0.13,0.28,0.78,1.20,1.41,1.33,0.95,0.30,0.52,1.38,2.14,2.67,2.88,2.72,2.18,1.34,0.31,0.74,1.64,2.24,2.45,2.27,1.74,1.00,0.20,0.49,0.93,1.05,0.82,0.32,0.34,0.98,1.40,1.44,1.03,0.17,1.01,2.25,3.26,3.76,3.56,2.63,1.07,0.86,2.85,4.52,5.59,5.86,5.29,4.00,2.21,0.18,1.82,3.59,4.96,5.86,6.25,6.12,5.46,4.30,2.67,0.68,1.50,3.65,5.47,6.71,7.17,6.72,5.43,3.46,1.13,
0.94,3.52,5.67,7.12,7.75,7.58,6.75,5.47,3.96,2.41,0.94,0.39,1.57,2.63,3.58,4.39,4.99,5.29,5.21,4.68,3.70,2.34,0.73,0.94,2.45,3.56,4.11,4.03,3.37,2.28,0.98,0.27,1.21,1.69,1.61,0.99,0.02,1.17,2.18,2.78,2.77,2.11,0.86,0.78,2.55,4.15,5.28,5.70,5.25,3.91,1.81,0.75,3.39,5.66,7.14,7.52,6.70,4.77,2.05,1.00,3.84,5.96,6.98,6.74,5.32,3.00,0.26,2.39,4.42,5.41,5.18,3.81,1.66,0.77,2.91,4.29,4.67,4.02,2.57,0.69,1.23,2.81,3.80,4.08,3.66,2.68,1.36,0.06,1.34,2.26,2.72,2.67,2.15,1.27,0.22,0.82,1.65,2.14,2.22,1.88,1.17,0.20,0.92,2.03,2.96,3.56,3.70,3.31,2.45,1.24,0.15,1.53,2.73,3.61,4.09,4.16,3.86,3.29,2.58,1.83,1.09,0.38,0.32,1.04,1.82,2.60,3.34,3.96,
9.88,8.72,6.63,3.91,0.96,1.81,4.01,5.33,5.63,4.93,3.44,1.52,0.43,1.98,2.81,2.73,1.74,0.04,2.04,4.05,5.50,6.01,5.37,3.60,0.99,1.97,4.72,6.74,7.65,7.28,5.72,3.30,0.49,2.17,4.17,5.18,5.07,3.94,2.13,0.09,1.70,2.83,3.08,2.44,1.11,0.57,2.18,3.36,3.83,3.52,2.50,1.00,0.65,2.16,3.26,3.79,3.71,3.09,2.11,0.99,0.03,0.76,1.08,0.99,0.58,0.03,0.45,0.65,0.41,0.31,1.45,2.82,4.16,5.16,5.52,5.06,3.73,1.63,0.99,3.75,6.22,8.00,8.77,8.38,6.88,4.48,1.58,1.38,3.91,5.63,6.31,5.93,4.68,2.91,1.01,0.61,1.66,1.98,1.57,0.58,0.73,2.02,3.00,3.43,3.21,2.39,1.14,0.31,1.74,2.93,3.79,4.27,4.44,4.38,4.15,3.77,3.20,2.40,1.33,0.02,1.45,2.97,4.35,5.41,6.01,6.09,5.64,4.72,
1.65,1.85,1.88,1.67,1.19,0.43,0.59,1.83,3.23,4.64,5.89,6.76,7.00,6.42,4.94,2.60,0.40,3.72,6.93,9.59,11.32,11.84,11.03,8.94,5.81,2.05,1.81,5.25,7.81,9.19,9.34,8.42,6.73,4.69,2.69,1.05,0.06,0.61,0.72,0.59,0.44,0.47,0.79,1.39,2.18,2.99,3.63,3.95,3.86,3.35,2.55,1.60,0.68,0.06,0.53,0.71,0.67,0.55,0.52,0.72,1.23,2.04,3.07,4.16,5.08,5.62,5.60,4.90,3.48,1.43,1.06,3.72,6.20,8.14,9.25,9.37,8.48,6.71,4.30,1.57,1.13,3.53,5.41,6.67,7.30,7.37,6.94,6.12,4.97,3.56,1.98,0.31,1.35,2.85,4.08,4.93,5.36,5.40,5.12,4.61,3.97,3.26,2.48,1.59,0.55,0.70,2.14,3.72,5.32,6.75,7.78,8.17,7.75,6.42,4.24,1.39,1.81,5.00,7.80,9.85,10.90,10.81,9.60,7.42,4.52,1.23,2.11,5.17,
4.43,4.53,4.10,3.15,1.78,0.17,1.43,2.74,3.51,3.61,3.02,1.91,0.55,0.75,1.68,2.05,1.77,0.92,0.33,1.68,2.82,3.49,3.51,2.83,1.57,0.04,1.70,3.10,4.00,4.30,4.00,3.22,2.16,1.01,0.05,0.90,1.50,1.86,1.99,1.94,1.77,1.52,1.24,0.96,0.71,0.50,0.35,0.27,0.25,0.30,0.38,0.47,0.50,0.40,0.09,0.47,1.26,2.19,3.09,3.78,4.09,3.89,3.13,1.88,0.30,1.41,3.00,4.24,4.98,5.11,4.67,3.75,2.53,1.24,0.09,0.76,1.23,1.33,1.19,0.98,0.89,1.05,1.54,2.31,3.23,4.12,4.76,4.96,4.60,3.65,2.20,0.40,1.55,3.44,5.09,6.40,7.27,7.68,7.61,7.08,6.08,4.62,2.73,0.47,2.01,4.54,6.91,8.86,10.17,10.63,10.12,8.64,6.33,3.46,0.35,2.64,5.18,7.03,8.06,8.29,7.84,6.88,5.64,4.28,2.95,1.73,0.66,0.28,
2.32,1.95,1.94,2.44,3.42,4.63,5.65,6.00,5.26,3.21,0.08,4.25,8.67,12.57,15.19,15.97,14.60,11.18,6.11,0.09,6.02,11.35,15.21,17.14,17.01,15.01,11.58,7.32,2.87,1.20,4.50,6.81,8.12,8.55,8.32,7.67,6.80,5.84,4.87,3.90,2.91,1.90,0.87,0.17,1.21,2.19,3.08,3.84,4.42,4.82,5.02,5.03,4.84,4.44,3.78,2.83,1.59,0.09,1.58,3.29,4.88,6.18,7.03,7.31,6.93,5.89,4.28,2.24,0.04,2.32,4.37,6.02,7.15,7.69,7.63,6.98,5.80,4.21,2.33,0.33,1.63,3.41,4.85,5.86,6.35,6.33,5.82,4.92,3.76,2.50,1.34,0.41,0.18,0.43,0.45,0.41,0.53,0.99,1.90,3.25,4.88,6.54,7.87,8.52,8.19,6.78,4.34,1.16,2.35,5.72,8.47,10.24,10.82,10.16,8.40,5.83,2.83,0.18,2.81,4.72,5.70,5.71,4.88,3.46,1.79,0.26,0.82,1.23,
13.10,13.35,12.18,9.73,6.33,2.42,1.54,5.11,7.98,9.92,10.84,10.75,9.79,8.13,6.00,3.61,1.14,1.23,3.37,5.18,6.61,7.59,8.06,7.99,7.33,6.10,4.38,2.29,0.00,2.27,4.27,5.79,6.66,6.80,6.26,5.16,3.68,2.08,0.58,0.61,1.37,1.68,1.65,1.42,1.19,1.10,1.26,1.63,2.12,2.54,2.71,2.49,1.84,0.80,0.44,1.64,2.52,2.86,2.55,1.60,0.18,1.42,2.86,3.77,3.90,3.16,1.63,0.40,2.54,4.38,5.53,5.76,5.00,3.36,1.15,1.22,3.28,4.63,4.98,4.27,2.68,0.54,1.70,3.56,4.65,4.72,3.73,1.85,0.58,3.10,5.24,6.59,6.88,6.04,4.19,1.63,1.25,4.00,6.21,7.58,7.92,7.21,5.59,3.31,0.70,1.88,4.12,5.75,6.61,6.63,5.85,4.42,2.58,0.59,1.24,2.64,3.41,3.46,2.82,1.69,0.35,0.86,1.67,1.87,1.45,0.49,0.78,2.10,
0.68,2.27,5.16,7.87,10.18,11.72,12.04,10.69,7.41,2.30,4.13,11.03,17.25,21.59,23.05,21.02,15.50,7.07,3.09,13.45,22.38,28.40,30.54,28.42,22.35,13.32,2.76,7.71,16.51,22.44,24.85,23.69,19.52,13.31,6.27,0.42,5.74,9.06,10.18,9.36,7.17,4.37,1.69,0.29,1.29,1.31,0.58,0.53,1.61,2.36,2.59,2.29,1.59,0.69,0.14,0.69,0.80,0.45,0.27,1.17,2.00,2.54,2.61,2.11,1.01,0.61,2.59,4.68,6.61,8.11,8.95,8.96,8.06,6.22,3.59,0.38,3.08,6.42,9.27,11.32,12.34,12.23,11.00,8.78,5.83,2.47,0.94,4.07,6.64,8.47,9.47,9.66,9.11,7.94,6.33,4.44,2.45,0.50,1.25,2.72,3.82,4.57,4.98,5.12,5.04,4.80,4.38,3.77,2.90,1.74,0.31,1.33,3.03,4.58,5.75,6.32,6.15,5.23,3.66,1.63,0.59,2.69,4.42,5.56,5.97,5.67,4.76,3.44,
11.88,5.88,0.81,7.51,13.56,18.45,21.82,23.50,23.42,21.63,18.18,13.21,6.95,0.25,7.88,15.30,21.77,26.52,28.90,28.46,25.07,18.92,10.61,1.02,8.76,17.61,24.48,28.55,29.34,26.77,21.21,13.35,4.19,5.16,13.63,20.27,24.41,25.68,24.05,19.85,13.72,6.53,0.76,7.20,12.06,14.90,15.66,14.63,12.36,9.55,6.90,4.94,3.96,3.94,4.61,5.53,6.16,6.01,4.75,2.26,1.30,5.56,9.98,13.99,17.04,18.74,18.88,17.48,14.74,11.01,6.74,2.39,1.67,5.16,7.99,10.12,11.61,12.53,12.92,12.83,12.24,11.11,9.42,7.17,4.45,1.42,1.66,4.47,6.66,7.94,8.10,7.16,5.28,2.79,0.13,2.21,3.79,4.27,3.50,1.56,1.29,4.57,7.71,10.12,11.33,11.05,9.26,6.21,2.36,1.69,5.34,8.09,9.65,10.00,9.35,8.11,6.74,5.66,5.15,5.28,5.85,6.50,6.69,5.91,3.76,0.09,4.92,10.78,
11.27,15.27,17.94,19.23,19.31,18.53,17.28,15.88,14.44,12.86,10.82,7.87,3.62,2.19,9.50,17.88,26.49,34.18,39.73,41.99,40.19,34.08,24.01,10.92,3.80,18.48,31.43,41.18,46.68,47.46,43.61,35.80,25.13,12.97,0.73,10.32,19.19,25.30,28.44,28.79,26.81,23.15,18.52,13.56,8.75,4.39,0.59,2.70,5.56,8.12,10.43,12.48,14.14,15.22,15.48,14.74,12.90,9.99,6.19,1.82,2.71,6.96,10.52,13.08,14.45,14.59,13.61,11.69,9.06,5.99,2.67,0.69,3.94,6.92,9.44,11.31,12.34,12.37,11.31,9.20,6.19,2.56,1.30,4.97,8.05,10.23,11.36,11.39,10.44,8.68,6.33,3.62,0.76,2.08,4.76,7.15,9.16,10.68,11.59,11.78,11.12,9.57,7.16,4.08,0.59,2.98,6.31,9.10,11.14,12.34,12.69,12.30,11.28,9.74,7.78,5.44,2.80,0.08,3.04,5.90,8.41,10.35,11.53,11.85,11.30,9.96,7.99,5.57,
5.98,8.21,9.09,8.26,5.74,1.94,2.45,6.55,9.55,10.86,10.24,7.85,4.21,0.09,3.67,6.31,7.31,6.50,4.10,0.64,3.11,6.33,8.26,8.44,6.74,3.40,1.00,5.67,9.76,12.52,13.45,12.36,9.41,5.08,0.04,4.94,9.11,11.92,13.03,12.38,10.17,6.81,2.86,1.08,4.47,6.84,7.95,7.72,6.32,4.08,1.44,1.08,3.03,4.08,4.05,3.01,1.19,1.03,3.20,4.89,5.75,5.62,4.49,2.54,0.06,2.57,4.98,6.81,7.83,7.90,7.06,5.43,3.27,0.89,1.41,3.37,4.83,5.69,6.00,5.86,5.41,4.79,4.08,3.30,2.40,1.33,0.04,1.47,3.13,4.77,6.20,7.18,7.48,7.00,5.71,3.75,1.35,1.19,3.53,5.40,6.59,6.97,6.54,5.44,3.85,2.04,0.26,1.28,2.42,3.07,3.22,2.94,2.35,1.61,0.89,0.33,0.02,0.01,0.23,0.67,1.20,1.69,2.00,2.02,1.68,0.95,0.13,1.45,
5.94,6.02,5.14,3.55,1.61,0.26,1.69,2.39,2.21,1.24,0.30,2.04,3.56,4.53,4.69,3.96,2.42,0.30,2.07,4.32,6.09,7.14,7.30,6.58,5.09,3.05,0.73,1.59,3.63,5.18,6.12,6.39,6.05,5.22,4.05,2.66,1.18,0.33,1.77,3.07,4.14,4.88,5.21,5.07,4.47,3.45,2.11,0.59,0.96,2.36,3.45,4.11,4.26,3.90,3.09,1.95,0.64,0.68,1.93,3.04,3.96,4.52,4.54,3.81,2.24,0.14,3.10,6.29,9.20,11.27,11.99,11.01,8.22,3.85,1.59,7.37,12.65,16.66,18.80,18.76,16.55,12.51,7.20,1.31,4.44,9.42,13.20,15.50,16.30,15.71,13.99,11.44,8.34,5.00,1.64,1.53,4.35,6.73,8.57,9.86,10.57,10.71,10.30,9.34,7.85,5.87,3.49,0.85,1.84,4.37,6.54,8.16,9.11,9.36,8.93,7.92,6.44,4.63,2.60,0.49,1.57,3.46,5.06,6.28,7.04,7.27,6.95,6.12,
4.17,4.27,3.88,3.07,1.94,0.63,0.75,2.11,3.38,4.50,5.44,6.09,6.38,6.19,5.42,4.02,2.03,0.41,3.05,5.56,7.58,8.77,8.92,7.97,6.05,3.46,0.58,2.15,4.38,5.86,6.45,6.18,5.16,3.62,1.83,0.06,1.42,2.45,2.93,2.88,2.40,1.64,0.79,0.00,0.62,1.05,1.32,1.49,1.61,1.72,1.83,1.87,1.77,1.41,0.75,0.22,1.43,2.74,3.95,4.82,5.16,4.88,3.98,2.61,0.98,0.66,2.10,3.21,3.95,4.32,4.39,4.24,3.92,3.48,2.95,2.30,1.54,0.64,0.40,1.54,2.72,3.81,4.71,5.31,5.54,5.34,4.70,3.61,2.12,0.33,1.62,3.55,5.24,6.48,7.07,6.90,5.92,4.22,1.98,0.51,2.93,4.94,6.26,6.73,6.32,5.13,3.37,1.30,0.78,2.58,3.87,4.55,4.59,4.07,3.11,1.91,0.66,0.45,1.27,1.73,1.81,1.58,1.20,0.83,0.60,0.60,0.81,1.15,
3.06,1.61,0.30,0.74,1.43,1.77,1.78,1.53,1.08,0.51,0.10,0.65,1.03,1.13,0.87,0.23,0.74,1.87,2.97,3.79,4.15,3.91,3.06,1.70,0.02,1.75,3.37,4.61,5.31,5.36,4.74,3.53,1.87,0.02,1.77,3.22,4.13,4.38,3.96,2.95,1.54,0.01,1.43,2.47,2.94,2.74,1.92,0.66,0.77,2.09,3.02,3.39,3.10,2.19,0.79,0.86,2.52,3.94,4.90,5.29,5.08,4.29,3.04,1.47,0.23,1.80,2.99,3.68,3.87,3.77,3.65,3.79,4.32,5.20,6.18,6.91,7.01,6.14,4.13,1.01,2.97,7.37,11.64,15.18,17.44,17.99,16.60,13.31,8.40,2.37,4.07,10.18,15.22,18.60,19.94,19.16,16.42,12.16,7.00,1.62,3.32,7.27,9.91,11.12,11.01,9.88,8.12,6.14,4.31,2.83,1.78,1.10,0.61,0.14,0.48,1.33,2.41,3.60,4.75,5.66,6.14,6.04,5.32,4.00,2.20,0.15,1.88,3.57,
4.32,3.74,2.97,2.22,1.61,1.15,0.71,0.10,0.86,2.23,3.94,5.77,7.35,8.31,8.28,7.07,4.67,1.30,2.63,6.56,9.90,12.13,12.87,12.02,9.71,6.29,2.26,1.83,5.48,8.27,9.91,10.30,9.50,7.74,5.34,2.68,0.14,1.97,3.44,4.17,4.19,3.64,2.72,1.68,0.76,0.13,0.11,0.07,0.61,1.39,2.26,3.01,3.45,3.36,2.64,1.22,0.77,3.11,5.46,7.43,8.65,8.84,7.86,5.74,2.69,0.90,4.55,7.74,9.99,10.99,10.60,8.90,6.16,2.81,0.67,3.82,6.26,7.72,8.12,7.51,6.10,4.19,2.12,0.20,1.32,2.29,2.69,2.57,2.06,1.34,0.60,0.03,0.25,0.17,0.27,1.01,1.91,2.80,3.47,3.74,3.51,2.73,1.47,0.13,1.84,3.42,4.63,5.31,5.34,4.73,3.56,2.03,0.38,1.13,2.29,2.96,3.08,2.69,1.93,0.99,0.09,0.56,0.86,0.77,0.38,0.18,0.73,1.14,
1.98,3.34,4.70,6.04,7.30,8.33,8.87,8.65,7.43,5.11,1.78,2.24,6.44,10.20,12.90,14.04,13.38,10.97,7.17,2.55,2.21,6.43,9.56,11.26,11.41,10.17,7.89,5.06,2.16,0.38,2.29,3.46,3.96,3.98,3.75,3.44,3.17,2.93,2.62,2.13,1.38,0.39,0.72,1.74,2.43,2.60,2.14,1.09,0.33,1.83,3.04,3.64,3.41,2.30,0.46,1.81,4.06,5.83,6.73,6.53,5.20,2.92,0.10,2.74,5.07,6.44,6.59,5.53,3.48,0.90,1.70,3.80,5.00,5.08,4.09,2.23,0.10,2.45,4.39,5.58,5.79,5.01,3.35,1.09,1.36,3.57,5.11,5.68,5.17,3.70,1.61,0.61,2.44,3.45,3.42,2.39,0.62,1.47,3.36,4.57,4.79,3.91,2.06,0.41,3.04,5.32,6.81,7.23,6.52,4.79,2.37,0.34,2.89,4.91,6.13,6.43,5.83,4.45,2.52,0.31,1.87,3.75,5.06,5.63,5.38,4.31,2.53,0.27,
3.78,4.58,4.77,4.33,3.33,1.95,0.38,1.15,2.47,3.45,4.04,4.26,4.20,3.95,3.59,3.12,2.51,1.69,0.63,0.72,2.29,3.99,5.62,6.95,7.73,7.74,6.87,5.11,2.62,0.33,3.35,6.05,8.09,9.26,9.44,8.70,7.16,5.06,2.65,0.20,2.05,3.92,5.30,6.16,6.49,6.37,5.88,5.11,4.18,3.16,2.13,1.12,0.12,0.89,1.91,2.95,3.96,4.87,5.57,5.97,5.93,5.39,4.33,2.80,0.92,1.11,3.08,4.77,5.97,6.55,6.49,5.81,4.64,3.14,1.47,0.25,1.93,3.48,4.81,5.77,6.20,5.99,5.08,3.53,1.52,0.68,2.79,4.53,5.69,6.15,5.86,4.89,3.37,1.49,0.51,2.39,3.94,5.00,5.46,5.28,4.48,3.12,1.34,0.63,2.55,4.11,5.08,5.30,4.73,3.44,1.62,0.43,2.33,3.71,4.31,4.05,3.01,1.47,0.20,1.62,2.50,2.68,2.17,1.16,0.05,1.12,1.77,1.82,
1.25,2.94,4.35,5.34,5.83,5.77,5.14,4.00,2.40,0.44,1.70,3.82,5.67,7.01,7.65,7.48,6.51,4.85,2.70,0.34,1.96,3.94,5.41,6.26,6.50,6.21,5.49,4.51,3.38,2.19,0.97,0.29,1.57,2.88,4.14,5.26,6.10,6.53,6.45,5.80,4.60,2.93,0.95,1.13,3.07,4.62,5.61,5.97,5.72,4.97,3.91,2.71,1.54,0.53,0.27,0.85,1.22,1.45,1.55,1.56,1.48,1.33,1.15,0.96,0.84,0.82,0.95,1.23,1.63,2.07,2.46,2.66,2.58,2.15,1.35,0.24,1.04,2.36,3.56,4.49,5.06,5.21,4.95,4.33,3.38,2.19,0.85,0.54,1.83,2.93,3.75,4.28,4.58,4.70,4.70,4.58,4.31,3.83,3.08,2.02,0.67,0.93,2.69,4.50,6.20,7.61,8.52,8.75,8.17,6.73,4.50,1.68,1.44,4.50,7.14,9.06,10.06,10.06,9.11,7.40,5.15,2.62,0.07,2.24,4.14,5.51,6.33,6.67,
0.74,0.96,2.57,3.78,4.35,4.20,3.41,2.18,0.79,0.45,1.31,1.64,1.43,0.78,0.11,0.96,1.48,1.47,0.83,0.40,1.99,3.63,4.97,5.66,5.48,4.34,2.35,0.21,2.94,5.39,7.17,8.01,7.79,6.56,4.51,1.94,0.81,3.40,5.49,6.86,7.39,7.06,5.95,4.22,2.07,0.28,2.54,4.46,5.78,6.31,5.97,4.77,2.89,0.60,1.73,3.72,5.04,5.48,4.99,3.65,1.70,0.55,2.72,4.47,5.54,5.77,5.12,3.70,1.73,0.53,2.78,4.70,6.04,6.59,6.29,5.18,3.44,1.33,0.83,2.76,4.25,5.19,5.56,5.41,4.82,3.90,2.74,1.44,0.10,1.21,2.42,3.47,4.31,4.87,5.10,4.95,4.43,3.56,2.40,1.00,0.55,2.17,3.71,5.05,6.01,6.46,6.32,5.55,4.22,2.44,0.42,1.62,3.44,4.81,5.61,5.73,5.21,4.15,2.77,1.33,0.08,0.78,1.15,1.10,0.77,0.37,0.09,0.11,
2.26,0.96,0.64,2.37,4.03,5.36,6.14,6.19,5.43,3.89,1.78,0.61,2.94,4.88,6.17,6.65,6.32,5.24,3.62,1.70,0.26,2.04,3.45,4.38,4.76,4.58,3.91,2.85,1.55,0.21,1.02,1.99,2.58,2.75,2.51,1.95,1.19,0.38,0.33,0.82,1.04,1.01,0.79,0.48,0.18,0.02,0.07,0.02,0.23,0.49,0.69,0.77,0.64,0.28,0.29,0.98,1.66,2.18,2.39,2.19,1.54,0.49,0.81,2.15,3.27,3.91,3.89,3.17,1.88,0.30,1.23,2.41,3.09,3.29,3.15,2.86,2.59,2.46,2.45,2.48,2.37,1.90,0.91,0.69,2.82,5.28,7.69,9.61,10.58,10.28,8.53,5.40,1.20,3.53,8.13,11.90,14.23,14.72,13.28,10.14,5.78,0.89,3.83,7.73,10.33,11.40,10.94,9.17,6.45,3.23,0.04,2.95,5.17,6.51,6.88,6.36,5.08,3.29,1.25,0.75,2.47,3.73,4.43,4.56,4.17,3.39,2.35,1.18,
2.19,4.48,6.18,6.94,6.55,5.10,2.96,0.71,1.01,1.68,1.04,0.80,3.34,5.88,7.58,7.75,5.96,2.18,3.18,9.36,15.34,20.05,22.60,22.37,19.20,13.42,5.71,2.95,11.48,18.88,24.32,27.24,27.40,24.91,20.16,13.80,6.60,0.63,7.17,12.47,16.21,18.28,18.77,17.91,16.03,13.47,10.55,7.52,4.52,1.60,1.22,3.91,6.45,8.75,10.69,12.11,12.85,12.79,11.87,10.13,7.68,4.72,1.50,1.69,4.57,6.87,8.40,9.05,8.86,7.98,6.64,5.12,3.69,2.58,1.91,1.70,1.82,2.07,2.18,1.91,1.03,0.55,2.80,5.51,8.34,10.83,12.54,13.05,12.09,9.62,5.80,1.02,4.15,9.05,13.04,15.58,16.37,15.32,12.60,8.62,3.91,0.92,5.31,8.79,11.08,12.07,11.81,10.51,8.43,5.86,3.08,0.30,2.28,4.50,6.24,7.38,7.83,7.53,6.48,4.74,2.48,0.06,2.59,4.83,6.50,7.38,7.38,6.50,
3.85,2.52,0.84,0.88,2.28,2.99,2.64,1.00,1.93,5.89,10.30,14.40,17.32,18.28,16.70,12.40,5.66,2.79,11.71,19.51,24.69,26.32,24.43,19.97,14.46,9.57,6.55,5.89,7.13,9.02,9.84,7.91,2.08,7.84,20.97,35.38,48.51,57.61,60.42,55.57,43.01,24.00,0.96,23.01,44.61,60.91,69.84,70.46,63.07,49.14,30.93,11.17,7.47,22.80,33.35,38.56,38.70,34.73,28.03,20.09,12.24,5.49,0.42,2.81,4.40,4.76,4.44,3.92,3.58,3.64,4.13,4.97,5.94,6.81,7.34,7.36,6.78,5.64,4.01,2.08,0.07,1.78,3.20,4.00,4.05,3.38,2.15,0.66,0.69,1.53,1.56,0.67,1.01,3.20,5.43,7.23,8.18,8.02,6.65,4.21,1.02,2.46,5.75,8.39,10.03,10.47,9.68,7.81,5.14,2.04,1.09,3.87,6.01,7.33,7.73,7.27,6.09,4.40,2.51,0.68,0.86,1.99,2.71,3.10,3.29,3.43,3.57,3.76,
7.24,8.37,9.38,9.91,9.73,8.78,7.28,5.59,4.09,3.09,2.69,2.76,2.97,2.85,1.95,0.06,3.28,7.53,12.31,16.95,20.70,22.87,22.96,20.74,16.30,10.02,2.52,5.43,13.00,19.45,24.21,26.92,27.50,26.06,22.87,18.27,12.64,6.37,0.14,6.53,12.40,17.38,21.12,23.37,23.94,22.79,20.01,15.84,10.61,4.80,1.09,6.52,11.04,14.31,16.17,16.60,15.74,13.84,11.17,8.06,4.77,1.54,1.45,4.05,6.14,7.62,8.42,8.50,7.85,6.53,4.61,2.22,0.45,3.14,5.50,7.17,7.83,7.29,5.52,2.68,0.88,4.69,8.17,10.76,12.00,11.66,9.70,6.38,2.15,2.36,6.50,9.71,11.61,12.01,11.03,8.94,6.19,3.28,0.62,1.46,2.86,3.56,3.72,3.50,3.13,2.76,2.52,2.48,2.63,2.91,3.24,3.49,3.55,3.36,2.87,2.12,1.19,0.15,0.90,1.90,2.79,3.51,4.04,4.36,4.47,4.40,4.23,4.02,
15.22,15.42,13.40,9.21,3.25,3.66,10.42,15.81,18.71,18.37,14.57,7.72,1.21,10.80,19.43,25.58,28.09,26.33,20.30,10.67,1.28,13.84,25.16,33.51,37.64,36.92,31.45,22.01,9.92,3.16,15.51,25.62,32.37,35.18,33.99,29.23,21.74,12.56,2.86,6.25,13.83,19.22,22.05,22.33,20.37,16.71,12.05,7.11,2.53,1.21,3.90,5.53,6.30,6.50,6.45,6.41,6.51,6.80,7.14,7.36,7.20,6.48,5.06,2.95,0.31,2.61,5.44,7.81,9.41,10.06,9.69,8.44,6.53,4.30,2.08,0.16,1.30,2.27,2.83,3.15,3.46,3.94,4.72,5.78,6.99,8.03,8.57,8.28,6.96,4.56,1.22,2.73,6.83,10.54,13.35,14.83,14.76,13.10,10.04,5.94,1.29,3.36,7.48,10.65,12.56,13.10,12.34,10.50,7.88,4.87,1.80,1.01,3.36,5.10,6.20,6.64,6.46,5.74,4.58,3.14,1.56,0.03,1.29,2.23,2.69,2.58,1.86,0.61,
0.75,1.46,2.05,2.49,2.70,2.62,2.21,1.49,0.53,0.53,1.51,2.19,2.42,2.10,1.23,0.04,1.47,2.75,3.60,3.76,3.10,1.65,0.40,2.75,4.96,6.62,7.35,6.95,5.39,2.83,0.33,3.62,6.50,8.54,9.39,8.95,7.33,4.81,1.83,1.16,3.73,5.58,6.56,6.69,6.11,5.05,3.75,2.42,1.21,0.16,0.71,1.45,2.12,2.77,3.41,4.00,4.42,4.51,4.14,3.22,1.81,0.03,1.88,3.65,5.02,5.81,5.92,5.31,4.08,2.35,0.32,1.77,3.67,5.18,6.09,6.28,5.70,4.40,2.51,0.29,1.98,3.97,5.43,6.16,6.07,5.19,3.64,1.66,0.48,2.47,4.03,4.95,5.13,4.56,3.35,1.67,0.21,1.99,3.40,4.23,4.36,3.77,2.57,0.94,0.86,2.59,4.01,4.94,5.24,4.86,3.80,2.15,0.07,2.19,4.36,6.12,7.19,7.37,6.64,5.08,2.93,0.52,1.80,3.74,5.08,5.75,5.79,5.35,
1.32,1.19,0.96,0.43,0.49,1.72,2.95,3.79,3.88,2.97,1.09,1.51,4.38,6.95,8.68,9.11,8.01,5.39,1.55,3.01,7.64,11.64,14.40,15.48,14.65,11.98,7.76,2.51,3.13,8.46,12.84,15.75,16.90,16.24,13.95,10.36,5.97,1.29,3.15,6.90,9.64,11.20,11.58,10.92,9.50,7.61,5.52,3.46,1.58,0.09,1.53,2.79,3.89,4.85,5.64,6.17,6.34,6.06,5.24,3.82,1.80,0.64,3.17,5.33,6.62,6.67,5.30,2.63,0.94,4.77,8.10,10.20,10.55,8.90,5.41,0.59,4.75,9.70,13.40,15.22,14.86,12.45,8.44,3.50,1.56,6.01,9.28,11.04,11.25,10.09,7.93,5.22,2.43,0.02,1.83,2.82,2.96,2.37,1.30,0.06,1.01,1.61,1.49,0.56,1.12,3.30,5.61,7.60,8.85,9.02,7.93,5.55,2.06,2.20,6.69,10.79,13.86,15.36,14.93,12.48,8.25,2.78,3.18,8.74,13.08,15.56,15.83,13.89,
2.73,2.61,2.51,2.55,2.77,3.08,3.25,3.01,2.09,0.37,2.10,5.05,8.02,10.46,11.85,11.80,10.16,7.08,2.91,1.78,6.37,10.25,12.95,14.19,13.91,12.25,9.50,6.04,2.30,1.33,4.50,7.00,8.69,9.57,9.69,9.16,8.12,6.73,5.11,3.33,1.47,0.42,2.29,3.99,5.39,6.32,6.66,6.37,5.51,4.24,2.78,1.37,0.22,0.53,0.86,0.86,0.68,0.52,0.55,0.86,1.47,2.28,3.14,3.85,4.22,4.13,3.53,2.47,1.09,0.44,1.94,3.22,4.17,4.70,4.76,4.36,3.54,2.36,0.97,0.50,1.87,2.96,3.65,3.88,3.67,3.09,2.28,1.37,0.48,0.28,0.86,1.26,1.50,1.64,1.69,1.68,1.60,1.45,1.25,1.01,0.79,0.60,0.47,0.39,0.30,0.15,0.11,0.50,1.04,1.70,2.40,3.04,3.51,3.69,3.49,2.92,2.01,0.86,0.43,1.78,3.09,4.28,5.26,5.95,6.24,6.05,5.31,3.98,
6.50,3.84,0.90,2.02,4.61,6.62,7.85,8.18,7.64,6.31,4.39,2.14,0.14,2.17,3.68,4.52,4.62,4.08,3.07,1.85,0.66,0.32,0.99,1.35,1.44,1.34,1.12,0.82,0.47,0.10,0.29,0.68,1.08,1.46,1.77,1.93,1.85,1.44,0.68,0.38,1.59,2.78,3.71,4.21,4.14,3.48,2.29,0.74,0.95,2.54,3.79,4.54,4.73,4.39,3.62,2.54,1.23,0.20,1.70,3.16,4.45,5.40,5.85,5.63,4.67,2.99,0.70,1.95,4.62,6.90,8.44,8.96,8.34,6.64,4.05,0.91,2.41,5.51,8.01,9.59,10.06,9.36,7.61,5.04,2.00,1.13,3.96,6.16,7.52,7.93,7.42,6.14,4.32,2.27,0.30,1.32,2.37,2.75,2.50,1.78,0.85,0.02,0.43,0.32,0.42,1.71,3.33,4.93,6.15,6.65,6.22,4.79,2.49,0.36,3.38,6.15,8.29,9.55,9.79,9.01,7.34,4.99,2.21,0.68,3.40,5.68,7.30,8.11,
4.25,5.66,7.27,8.80,9.93,10.28,9.58,7.67,4.57,0.51,4.11,8.81,13.08,16.45,18.57,19.24,18.40,16.13,12.60,8.03,2.68,3.15,9.10,14.76,19.68,23.35,25.29,25.14,22.70,18.04,11.51,3.75,4.41,12.05,18.32,22.56,24.41,23.85,21.18,16.93,11.75,6.32,1.18,3.32,6.98,9.80,11.85,13.26,14.09,14.36,14.02,13.00,11.22,8.65,5.33,1.41,2.83,7.02,10.76,13.67,15.45,15.90,14.94,12.67,9.32,5.25,0.90,3.30,6.94,9.68,11.31,11.75,11.06,9.45,7.17,4.57,1.95,0.40,2.25,3.51,4.15,4.23,3.91,3.32,2.63,1.97,1.45,1.13,1.04,1.11,1.26,1.35,1.31,1.07,0.62,0.03,0.80,1.61,2.33,2.83,2.99,2.73,2.06,1.08,0.07,1.19,2.11,2.69,2.86,2.59,1.88,0.82,0.48,1.83,3.02,3.85,4.19,3.98,3.27,2.16,0.76,0.76,2.26,3.59,4.64,5.29,5.49,5.19,
8.00,7.95,7.68,7.09,6.00,4.19,1.51,2.04,6.29,10.81,15.02,18.23,19.77,19.15,16.15,10.90,3.94,3.89,11.55,18.02,22.40,24.14,23.08,19.45,13.85,7.08,0.05,6.43,11.69,15.30,17.05,17.00,15.40,12.62,9.11,5.29,1.52,1.93,4.85,7.11,8.65,9.43,9.46,8.81,7.58,5.92,3.94,1.79,0.40,2.48,4.34,5.85,6.91,7.42,7.34,6.62,5.31,3.52,1.45,0.67,2.59,4.13,5.19,5.76,5.91,5.75,5.36,4.80,4.07,3.16,2.02,0.62,1.03,2.85,4.66,6.24,7.34,7.78,7.43,6.31,4.52,2.31,0.03,2.16,3.77,4.65,4.78,4.26,3.38,2.48,1.88,1.76,2.15,2.89,3.66,4.14,3.99,3.06,1.36,0.92,3.45,5.86,7.77,8.87,9.01,8.15,6.44,4.10,1.42,1.29,3.78,5.83,7.30,8.11,8.22,7.66,6.47,4.76,2.64,0.28,2.13,4.35,6.09,7.11,7.24,6.40,4.70,2.42,
2.41,2.99,2.60,1.34,0.47,2.36,3.87,4.58,4.27,2.94,0.77,1.86,4.47,6.56,7.72,7.71,6.49,4.24,1.30,1.86,4.75,6.94,8.12,8.17,7.14,5.22,2.71,0.01,2.57,4.64,6.00,6.52,6.21,5.18,3.60,1.68,0.33,2.22,3.77,4.82,5.26,5.05,4.25,2.99,1.43,0.22,1.79,3.16,4.23,4.94,5.25,5.12,4.50,3.37,1.74,0.30,2.60,4.88,6.83,8.11,8.47,7.75,5.95,3.22,0.11,3.65,6.95,9.57,11.13,11.35,10.13,7.53,3.84,0.48,4.87,8.70,11.43,12.70,12.34,10.48,7.45,3.74,0.13,3.68,6.53,8.45,9.35,9.23,8.24,6.55,4.42,2.10,0.17,2.15,3.66,4.59,4.89,4.59,3.82,2.77,1.63,0.60,0.20,0.71,0.92,0.87,0.65,0.40,0.24,0.29,0.62,1.20,1.92,2.57,2.93,2.77,1.94,0.44,1.58,3.83,5.89,7.32,7.76,6.99,5.00,2.04,1.47,4.98,
5.72,8.78,10.77,11.55,11.16,9.76,7.63,5.07,2.36,0.25,2.58,4.54,6.09,7.23,7.95,8.26,8.14,7.55,6.51,5.04,3.18,0.99,1.42,3.89,6.24,8.24,9.65,10.27,9.98,8.71,6.54,3.66,0.39,2.90,5.80,8.00,9.27,9.56,8.96,7.66,5.90,3.93,1.93,0.03,1.70,3.24,4.59,5.75,6.69,7.32,7.51,7.13,6.05,4.25,1.82,1.07,4.13,6.98,9.19,10.32,10.06,8.29,5.14,1.00,3.55,7.81,11.08,12.79,12.58,10.44,6.64,1.78,3.39,8.09,11.66,13.66,13.91,12.51,9.76,6.13,2.11,1.80,5.18,7.75,9.34,9.95,9.70,8.82,7.56,6.16,4.79,3.53,2.35,1.15,0.21,1.82,3.71,5.78,7.85,9.65,10.87,11.23,10.55,8.77,5.99,2.48,1.36,5.07,8.20,10.41,11.47,11.31,10.03,7.83,5.05,2.06,0.78,3.16,4.88,5.84,6.06,5.63,4.73,3.56,2.32,1.17,0.22,0.48,
6.09,7.33,7.25,5.50,2.19,2.05,6.07,8.59,8.52,5.30,0.83,8.87,17.17,23.79,26.95,25.41,18.77,7.57,6.71,21.95,35.71,45.69,50.14,48.16,39.87,26.34,9.36,8.77,25.70,39.34,48.14,51.32,48.88,41.51,30.47,17.34,3.74,8.83,19.21,26.66,30.89,31.97,30.27,26.35,20.84,14.39,7.61,1.00,5.03,10.15,14.14,16.85,18.20,18.23,17.06,14.86,11.84,8.19,4.12,0.19,4.53,8.69,12.39,15.35,17.27,17.90,17.09,14.85,11.36,7.00,2.20,2.54,6.79,10.22,12.67,14.10,14.58,14.25,13.31,11.90,10.13,8.06,5.68,2.98,0.02,3.28,6.71,10.11,13.22,15.71,17.24,17.55,16.48,14.01,10.28,5.61,0.39,4.90,9.77,13.81,16.66,18.12,18.12,16.75,14.21,10.79,6.84,2.74,1.20,4.71,7.58,9.72,11.09,11.73,11.67,11.01,9.85,8.31,6.56,4.71,2.89,1.12,0.58,2.25,3.93,5.63,7.30,8.85,
3.99,1.06,1.96,4.39,5.71,5.75,4.73,3.16,1.73,1.03,1.44,2.98,5.24,7.52,9.00,8.93,6.87,2.81,2.79,9.11,15.07,19.63,21.93,21.47,18.18,12.42,4.95,3.26,11.17,17.84,22.58,24.95,24.86,22.48,18.23,12.62,6.24,0.36,6.68,12.33,16.98,20.36,22.27,22.59,21.26,18.38,14.16,8.94,3.21,2.49,7.66,11.87,14.83,16.43,16.74,15.95,14.34,12.26,10.01,7.82,5.80,3.93,2.11,0.15,2.09,4.64,7.43,10.23,12.73,14.55,15.39,15.04,13.49,10.87,7.51,3.79,0.11,3.19,5.88,7.86,9.13,9.78,9.97,9.85,9.52,9.02,8.32,7.32,5.92,4.05,1.71,0.98,3.84,6.60,8.94,10.57,11.28,10.94,9.60,7.41,4.63,1.59,1.33,3.80,5.54,6.43,6.47,5.79,4.64,3.31,2.11,1.29,1.00,1.20,1.70,2.25,2.54,2.33,1.53,0.15,1.64,3.57,5.29,6.49,6.93,6.53,5.34,3.54,
17.85,11.58,4.82,1.35,6.14,9.47,11.89,14.40,18.01,23.25,29.94,37.09,43.02,45.78,43.62,35.38,20.93,1.27,21.55,44.69,64.98,79.49,85.99,83.32,71.64,52.38,28.01,1.57,23.75,45.17,60.64,69.11,70.51,65.66,55.94,43.08,28.78,14.53,1.44,9.81,18.92,25.84,30.68,33.58,34.64,33.94,31.54,27.54,22.14,15.67,8.54,1.28,5.61,11.64,16.44,19.76,21.55,21.86,20.89,18.88,16.12,12.84,9.26,5.54,1.82,1.83,5.31,8.55,11.45,13.87,15.61,16.52,16.43,15.28,13.06,9.89,5.96,1.58,2.94,7.24,11.00,13.91,15.70,16.21,15.37,13.24,9.96,5.82,1.18,3.52,7.86,11.41,13.79,14.75,14.15,12.03,8.65,4.40,0.16,4.48,8.03,10.42,11.46,11.17,9.72,7.43,4.69,1.88,0.68,2.75,4.22,5.08,5.38,5.23,4.73,3.99,3.14,2.29,1.59,1.11,0.91,0.92,1.04,1.09,0.92,0.39,0.56,1.89,
3.77,7.67,11.08,13.74,15.40,15.87,15.02,12.86,9.52,5.31,0.65,3.97,8.07,11.23,13.15,13.71,12.94,11.00,8.16,4.75,1.15,2.25,5.07,7.03,7.95,7.82,6.80,5.18,3.29,1.52,0.16,0.61,0.75,0.38,0.30,1.00,1.41,1.29,0.54,0.82,2.61,4.53,6.22,7.35,7.64,6.97,5.38,3.06,0.30,2.50,4.97,6.77,7.71,7.75,6.98,5.65,4.04,2.42,1.00,0.10,0.88,1.44,1.90,2.39,2.98,3.65,4.34,4.90,5.18,5.02,4.35,3.15,1.52,0.42,2.48,4.43,6.06,7.13,7.51,7.11,5.97,4.17,1.89,0.63,3.09,5.19,6.63,7.24,6.96,5.85,4.10,1.97,0.23,2.21,3.72,4.57,4.69,4.12,3.02,1.58,0.03,1.39,2.49,3.11,3.15,2.61,1.56,0.22,1.16,2.27,2.89,2.92,2.46,1.73,0.92,0.13,0.66,1.54,2.61,3.84,5.10,6.13,6.59,6.22,4.82,2.41,0.82,4.50,
5.91,1.68,3.17,7.96,12.00,14.64,15.39,14.04,10.67,5.69,0.21,6.21,11.44,15.16,16.85,16.30,13.63,9.28,3.91,1.74,6.89,10.92,13.36,14.00,12.90,10.31,6.70,2.62,1.34,4.68,7.04,8.24,8.24,7.17,5.25,2.79,0.15,2.31,4.29,5.56,6.00,5.57,4.32,2.42,0.08,2.41,4.75,6.66,7.88,8.22,7.58,5.97,3.54,0.52,2.72,5.82,8.36,10.02,10.55,9.84,7.96,5.14,1.76,1.74,4.91,7.38,8.87,9.28,8.67,7.22,5.18,2.86,0.55,1.52,3.18,4.35,5.02,5.25,5.14,4.78,4.25,3.58,2.79,1.88,0.90,0.11,1.08,1.96,2.71,3.28,3.66,3.85,3.86,3.69,3.35,2.82,2.13,1.27,0.28,0.76,1.75,2.56,3.11,3.38,3.40,3.21,2.90,2.49,2.04,1.53,0.96,0.34,0.30,0.93,1.51,2.01,2.42,2.76,3.05,3.33,3.57,3.69,3.57,3.05,2.00,0.36,1.76,4.15,
0.54,0.29,0.45,1.56,2.80,3.91,4.62,4.77,4.30,3.30,1.96,0.50,0.85,1.91,2.63,2.99,3.09,3.01,2.87,2.70,2.53,2.35,2.11,1.80,1.40,0.92,0.34,0.30,1.00,1.72,2.40,2.99,3.43,3.66,3.65,3.39,2.94,2.35,1.66,0.93,0.17,0.61,1.41,2.25,3.15,4.09,4.99,5.72,6.10,5.95,5.14,3.62,1.46,1.16,3.97,6.66,8.90,10.37,10.80,10.03,8.06,5.04,1.29,2.73,6.50,9.49,11.29,11.66,10.61,8.37,5.35,2.06,0.96,3.30,4.71,5.13,4.73,3.84,2.86,2.14,1.92,2.23,2.95,3.80,4.45,4.60,4.04,2.69,0.64,1.88,4.49,6.75,8.26,8.72,8.02,6.25,3.70,0.77,2.05,4.35,5.81,6.27,5.77,4.50,2.78,0.97,0.58,1.62,2.03,1.86,1.29,0.58,0.05,0.40,0.40,0.06,0.52,1.18,1.71,1.96,1.82,1.28,0.40,0.67,1.77,2.70,3.31,3.49,
2.15,3.89,5.15,5.75,5.64,4.96,3.98,3.02,2.35,2.14,2.36,2.81,3.15,3.00,2.05,0.10,2.80,6.39,10.17,13.52,15.78,16.39,14.99,11.55,6.32,0.14,7.08,13.62,18.93,22.34,23.39,21.97,18.23,12.63,5.85,1.35,8.15,13.85,17.87,19.86,19.74,17.70,14.18,9.77,5.11,0.77,2.83,5.49,7.22,8.13,8.44,8.35,8.02,7.53,6.90,6.09,5.09,3.85,2.40,0.83,0.75,2.20,3.39,4.27,4.83,5.08,5.10,4.94,4.67,4.33,3.94,3.49,2.92,2.14,1.09,0.25,1.84,3.54,5.18,6.57,7.48,7.69,7.05,5.52,3.19,0.30,2.77,5.57,7.68,8.76,8.60,7.21,4.80,1.75,1.42,4.20,6.17,7.08,6.87,5.71,3.89,1.78,0.21,1.79,2.76,3.05,2.76,2.08,1.25,0.50,0.03,0.27,0.24,0.03,0.43,0.89,1.30,1.63,1.87,2.04,2.13,2.08,1.80,1.18,0.17,1.20,2.78,4.35,
3.71,0.76,2.44,5.45,7.82,9.22,9.45,8.48,6.45,3.65,0.48,2.63,5.29,7.20,8.17,8.18,7.33,5.85,4.03,2.17,0.53,0.72,1.54,1.98,2.17,2.29,2.48,2.84,3.40,4.11,4.84,5.40,5.59,5.23,4.25,2.64,0.53,1.89,4.34,6.53,8.17,9.00,8.88,7.77,5.80,3.20,0.32,2.43,4.67,6.09,6.52,5.99,4.69,2.93,1.08,0.49,1.53,1.91,1.66,0.94,0.01,0.93,1.65,2.05,2.13,1.94,1.55,1.00,0.34,0.42,1.29,2.24,3.24,4.18,4.91,5.26,5.05,4.21,2.72,0.69,1.65,4.01,6.05,7.44,7.93,7.41,5.92,3.68,1.00,1.70,4.03,5.67,6.42,6.25,5.30,3.80,2.07,0.39,1.04,2.08,2.69,2.90,2.77,2.39,1.86,1.26,0.68,0.19,0.19,0.42,0.52,0.54,0.55,0.60,0.73,0.94,1.16,1.30,1.31,1.13,0.78,0.31,0.17,0.60,0.88,0.97,0.86,0.57,
7.26,6.67,5.24,3.06,0.33,2.63,5.49,7.91,9.60,10.37,10.15,8.99,7.05,4.62,2.00,0.49,2.64,4.32,5.49,6.18,6.43,6.30,5.87,5.23,4.45,3.59,2.69,1.79,0.86,0.11,1.15,2.24,3.36,4.44,5.35,5.98,6.20,5.94,5.21,4.03,2.53,0.82,0.93,2.56,3.95,4.98,5.60,5.79,5.59,5.03,4.20,3.16,1.96,0.64,0.78,2.23,3.62,4.77,5.52,5.71,5.26,4.21,2.68,0.91,0.88,2.44,3.57,4.14,4.10,3.48,2.41,1.09,0.27,1.49,2.39,2.84,2.78,2.21,1.21,0.06,1.39,2.57,3.42,3.78,3.57,2.81,1.62,0.18,1.30,2.63,3.64,4.21,4.30,3.91,3.09,1.90,0.47,1.05,2.43,3.46,3.94,3.76,2.95,1.66,0.15,1.31,2.43,3.02,2.97,2.30,1.16,0.23,1.63,2.78,3.47,3.56,3.01,1.91,0.45,1.10,2.48,3.45,3.87,3.70,3.03,2.04,0.94,0.07,
8.62,6.87,4.02,0.37,3.64,7.44,10.46,12.19,12.31,10.73,7.64,3.48,1.14,5.56,9.13,11.38,12.01,10.99,8.52,5.03,1.04,2.86,6.14,8.42,9.47,9.25,7.91,5.72,3.04,0.27,2.23,4.20,5.50,6.12,6.15,5.71,4.95,3.98,2.90,1.72,0.47,0.86,2.27,3.72,5.11,6.27,6.98,7.04,6.30,4.75,2.46,0.31,3.21,5.83,7.73,8.59,8.27,6.81,4.47,1.62,1.27,3.81,5.65,6.61,6.63,5.79,4.24,2.19,0.08,2.29,4.16,5.43,5.90,5.52,4.35,2.57,0.43,1.75,3.68,5.10,5.82,5.77,4.98,3.59,1.81,0.11,1.93,3.41,4.41,4.82,4.64,3.93,2.83,1.49,0.09,1.20,2.24,2.92,3.22,3.14,2.73,2.04,1.10,0.02,1.23,2.39,3.33,3.88,3.90,3.34,2.22,0.67,1.11,2.87,4.35,5.36,5.76,5.50,4.61,3.21,1.44,0.52,2.49,4.28,5.71,6.59,6.80,6.29,
6.28,6.56,6.44,6.06,5.49,4.71,3.66,2.21,0.30,2.05,4.64,7.16,9.21,10.39,10.41,9.14,6.66,3.23,0.74,4.72,8.19,10.68,11.89,11.66,10.08,7.39,3.99,0.37,3.01,5.77,7.65,8.60,8.69,8.07,6.92,5.42,3.69,1.85,0.01,1.81,3.46,4.86,5.94,6.60,6.80,6.49,5.69,4.44,2.82,0.95,0.98,2.80,4.34,5.49,6.16,6.33,6.01,5.22,4.03,2.52,0.81,0.97,2.65,4.06,5.03,5.42,5.16,4.25,2.80,1.01,0.89,2.60,3.87,4.49,4.35,3.47,1.98,0.10,1.89,3.67,4.97,5.58,5.41,4.53,3.11,1.37,0.42,2.05,3.36,4.26,4.74,4.84,4.63,4.20,3.63,2.95,2.19,1.35,0.45,0.48,1.43,2.34,3.16,3.81,4.26,4.46,4.39,4.06,3.51,2.79,1.99,1.15,0.30,0.55,1.38,2.21,3.01,3.75,4.34,4.69,4.70,4.33,3.58,2.53,1.31,0.08,1.04,1.96,
1.16,0.21,0.72,1.51,2.05,2.31,2.35,2.26,2.16,2.11,2.08,1.99,1.73,1.20,0.39,0.64,1.73,2.71,3.42,3.78,3.75,3.34,2.59,1.56,0.36,0.88,1.98,2.77,3.15,3.05,2.51,1.64,0.60,0.42,1.21,1.65,1.64,1.19,0.39,0.60,1.62,2.46,2.96,3.00,2.54,1.58,0.22,1.39,3.04,4.47,5.43,5.70,5.19,3.91,2.06,0.09,2.19,3.93,5.05,5.42,5.01,3.95,2.43,0.74,0.81,1.98,2.60,2.62,2.14,1.29,0.26,0.73,1.52,2.01,2.13,1.90,1.35,0.53,0.52,1.72,2.95,4.07,4.89,5.23,4.95,3.95,2.29,0.10,2.36,4.74,6.65,7.78,7.89,6.96,5.11,2.67,0.04,2.33,4.10,5.05,5.15,4.50,3.36,2.02,0.79,0.07,0.41,0.19,0.48,1.36,2.17,2.65,2.58,1.86,0.55,1.20,3.10,4.85,6.13,6.68,6.34,5.14,3.25,0.98,1.28,3.20,4.51,5.07,
2.02,2.74,3.18,3.41,3.55,3.65,3.72,3.65,3.30,2.49,1.12,0.83,3.19,5.69,7.95,9.54,10.09,9.39,7.40,4.33,0.60,3.29,6.81,9.49,11.03,11.33,10.45,8.58,6.00,3.05,0.04,2.75,5.06,6.72,7.64,7.81,7.34,6.38,5.10,3.69,2.29,1.02,0.06,0.94,1.68,2.34,3.00,3.70,4.41,5.06,5.52,5.66,5.35,4.55,3.28,1.65,0.17,2.00,3.64,4.97,5.88,6.36,6.43,6.15,5.54,4.65,3.51,2.21,0.83,0.61,2.11,3.72,5.45,7.26,9.00,10.43,11.22,11.06,9.69,6.98,3.01,1.91,7.28,12.43,16.64,19.27,19.86,18.23,14.51,9.11,2.70,3.94,10.00,14.80,17.83,18.87,17.96,15.36,11.52,6.98,2.31,1.99,5.54,8.13,9.67,10.20,9.85,8.80,7.30,5.60,3.95,2.52,1.42,0.64,0.11,0.30,0.77,1.42,2.37,3.64,5.19,6.85,8.38,9.50,9.94,9.44,7.86,5.16,
9.68,11.25,11.21,9.49,6.23,1.82,3.16,8.04,12.10,14.74,15.53,14.30,11.13,6.38,0.61,5.52,11.26,15.98,19.16,20.49,19.85,17.35,13.27,7.99,2.00,4.22,10.21,15.52,19.80,22.70,23.98,23.49,21.21,17.34,12.24,6.48,0.63,4.76,9.35,12.99,15.74,17.76,19.23,20.24,20.78,20.69,19.72,17.60,14.10,9.17,2.95,4.17,11.58,18.52,24.18,27.87,29.08,27.62,23.63,17.57,10.15,2.24,5.29,11.64,16.23,18.72,19.05,17.39,14.14,9.83,5.08,0.47,3.48,6.39,8.03,8.39,7.63,6.02,3.85,1.42,1.04,3.38,5.52,7.41,8.96,10.07,10.55,10.22,8.90,6.51,3.12,1.08,5.76,10.49,14.76,18.07,19.99,20.20,18.61,15.33,10.68,5.13,0.74,6.31,11.04,14.54,16.68,17.53,17.31,16.29,14.71,12.73,10.41,7.75,4.68,1.15,2.83,7.16,11.58,15.70,19.02,21.03,21.27,19.45,15.52,9.73,2.67,4.82,
10.19,11.09,11.59,11.57,10.88,9.47,7.35,4.61,1.45,1.89,5.12,7.91,10.02,11.23,11.47,10.78,9.35,7.44,5.37,3.44,1.88,0.81,0.23,0.02,0.15,0.42,1.03,2.11,3.65,5.52,7.50,9.29,10.60,11.18,10.88,9.64,7.50,4.59,1.09,2.72,6.53,9.97,12.70,14.42,14.97,14.29,12.45,9.65,6.16,2.34,1.48,4.99,7.95,10.22,11.70,12.35,12.14,11.13,9.36,6.94,4.02,0.83,2.35,5.22,7.51,9.00,9.57,9.23,8.06,6.26,4.08,1.83,0.17,1.70,2.66,3.06,3.03,2.79,2.56,2.51,2.75,3.24,3.87,4.41,4.65,4.37,3.50,2.04,0.15,1.99,4.12,6.00,7.37,8.07,7.96,7.01,5.33,3.09,0.59,1.88,4.00,5.54,6.32,6.32,5.63,4.43,2.99,1.58,0.44,0.31,0.67,0.73,0.67,0.67,0.87,1.34,2.02,2.74,3.26,3.37,2.90,1.83,0.27,1.54,3.26,4.56,5.16,4.87,
7.64,3.86,1.60,8.48,16.03,22.87,27.30,27.64,22.81,12.67,1.74,18.29,34.12,46.20,51.91,49.60,38.96,21.16,1.34,25.15,46.59,62.34,69.95,68.31,57.76,39.98,17.68,5.90,27.54,44.56,55.16,58.64,55.37,46.62,34.27,20.38,6.90,4.65,13.31,18.77,21.25,21.40,20.10,18.30,16.91,16.51,17.21,18.54,19.57,19.18,16.36,10.55,1.80,9.10,20.79,31.51,39.47,43.19,41.74,35.03,23.77,9.43,5.99,20.34,31.64,38.47,40.17,36.92,29.59,19.59,8.55,1.96,10.65,16.69,19.73,19.92,17.80,14.14,9.79,5.56,2.07,0.29,1.41,1.43,0.70,0.32,1.15,1.38,0.73,0.86,3.21,5.93,8.48,10.32,11.02,10.34,8.32,5.22,1.48,2.35,5.76,8.34,9.84,10.20,9.51,8.02,6.06,3.95,1.95,0.21,1.23,2.42,3.43,4.32,5.08,5.64,5.88,5.73,5.14,4.12,2.80,1.32,0.13,1.40,2.41,3.13,3.60,3.89,
5.56,4.87,3.79,2.59,1.47,0.56,0.10,0.59,1.01,1.46,1.97,2.51,2.98,3.24,3.17,2.70,1.86,0.73,0.51,1.67,2.55,3.01,2.98,2.49,1.65,0.64,0.34,1.12,1.58,1.69,1.46,0.99,0.37,0.28,0.85,1.26,1.48,1.49,1.33,1.04,0.69,0.30,0.15,0.71,1.37,2.12,2.84,3.39,3.58,3.28,2.44,1.13,0.50,2.25,3.86,5.10,5.79,5.78,5.05,3.65,1.76,0.39,2.51,4.30,5.53,6.05,5.85,5.01,3.67,2.03,0.30,1.33,2.68,3.65,4.21,4.34,4.11,3.56,2.79,1.87,0.91,0.03,0.88,1.60,2.14,2.48,2.62,2.58,2.38,2.08,1.74,1.42,1.12,0.79,0.41,0.07,0.65,1.29,1.93,2.46,2.80,2.87,2.65,2.18,1.53,0.78,0.01,0.74,1.43,2.04,2.54,2.88,3.01,2.88,2.45,1.73,0.76,0.35,1.48,2.51,3.32,3.79,3.86,3.52,2.81,1.83,0.70,0.48,
0.73,2.50,3.86,4.48,4.24,3.23,1.72,0.09,1.30,2.14,2.29,1.77,0.76,0.43,1.40,1.80,1.36,0.04,2.27,5.05,7.89,10.23,11.54,11.35,9.42,5.76,0.68,5.25,11.26,16.48,20.08,21.44,20.23,16.50,10.69,3.58,3.86,10.62,15.82,18.82,19.39,17.63,14.01,9.24,4.11,0.63,4.37,6.77,7.74,7.45,6.23,4.51,2.74,1.30,0.45,0.30,0.76,1.64,2.65,3.50,3.94,3.79,2.98,1.57,0.30,2.35,4.29,5.82,6.67,6.70,5.94,4.53,2.74,0.87,0.79,2.03,2.73,2.90,2.67,2.22,1.76,1.48,1.50,1.83,2.40,3.06,3.60,3.83,3.56,2.73,1.36,0.41,2.33,4.16,5.63,6.53,6.76,6.30,5.25,3.76,2.05,0.34,1.17,2.29,2.94,3.14,3.00,2.68,2.37,2.19,2.23,2.46,2.79,3.07,3.16,2.95,2.38,1.48,0.36,0.85,2.02,3.03,3.81,4.34,4.61,4.62,4.37,3.83,
2.74,2.19,1.28,0.10,1.94,4.04,6.07,7.61,8.27,7.78,6.09,3.39,0.09,3.29,6.19,8.13,8.78,8.04,6.02,3.05,0.41,3.79,6.53,8.19,8.50,7.43,5.16,2.07,1.36,4.59,7.15,8.67,9.00,8.13,6.24,3.63,0.69,2.20,4.69,6.52,7.52,7.63,6.89,5.43,3.43,1.12,1.23,3.34,4.94,5.82,5.85,5.04,3.52,1.54,0.59,2.54,4.02,4.81,4.80,4.03,2.64,0.90,0.91,2.48,3.58,4.09,4.02,3.49,2.68,1.75,0.84,0.00,0.75,1.43,2.05,2.62,3.09,3.38,3.37,3.00,2.26,1.22,0.03,1.13,2.12,2.78,3.06,2.92,2.42,1.66,0.78,0.10,0.84,1.33,1.48,1.30,0.83,0.21,0.42,0.93,1.22,1.27,1.10,0.78,0.38,0.04,0.50,1.01,1.59,2.22,2.83,3.27,3.37,3.00,2.05,0.56,1.33,3.37,5.25,6.65,7.29,7.00,5.73,3.59,0.83,2.20,5.11,7.51,
2.66,1.54,0.14,1.45,3.10,4.67,6.00,6.90,7.24,6.91,5.90,4.30,2.27,0.04,2.09,3.88,5.09,5.60,5.40,4.58,3.31,1.85,0.45,0.66,1.33,1.47,1.12,0.42,0.42,1.17,1.61,1.61,1.13,0.29,0.74,1.76,2.55,2.98,2.99,2.62,1.94,1.08,0.19,0.61,1.25,1.67,1.85,1.78,1.50,1.01,0.35,0.40,1.18,1.86,2.33,2.49,2.28,1.69,0.77,0.37,1.57,2.65,3.46,3.88,3.86,3.38,2.47,1.28,0.04,1.27,2.23,2.78,2.85,2.46,1.70,0.74,0.25,1.08,1.61,1.73,1.42,0.70,0.35,1.59,2.83,3.90,4.59,4.77,4.32,3.22,1.55,0.56,2.86,5.05,6.78,7.78,7.88,7.06,5.44,3.30,0.98,1.14,2.79,3.80,4.14,3.97,3.53,3.11,2.95,3.16,3.67,4.31,4.81,4.91,4.39,3.17,1.29,1.06,3.61,6.03,7.99,9.23,9.56,8.93,7.40,5.18,2.52,0.26,
4.10,5.72,6.53,6.49,5.68,4.27,2.46,0.51,1.35,2.89,3.95,4.48,4.49,4.10,3.44,2.66,1.84,1.08,0.39,0.22,0.80,1.36,1.91,2.37,2.66,2.68,2.35,1.69,0.82,0.08,0.82,1.24,1.25,0.88,0.25,0.46,1.06,1.39,1.34,0.92,0.22,0.60,1.34,1.85,2.02,1.83,1.35,0.70,0.04,0.49,0.75,0.71,0.40,0.10,0.63,1.05,1.23,1.10,0.64,0.08,0.93,1.76,2.40,2.73,2.67,2.21,1.41,0.42,0.60,1.48,2.08,2.31,2.11,1.51,0.60,0.48,1.53,2.34,2.68,2.41,1.47,0.06,1.97,3.96,5.66,6.70,6.82,5.89,3.98,1.33,1.71,4.73,7.30,9.10,9.88,9.53,8.10,5.80,2.94,0.08,2.87,5.05,6.41,6.87,6.55,5.67,4.54,3.41,2.47,1.79,1.37,1.07,0.77,0.28,0.50,1.60,2.93,4.30,5.45,6.12,6.11,5.31,3.79,1.73,0.57,2.78,4.57,5.68,
0.45,1.15,1.88,2.52,2.95,3.00,2.56,1.55,0.00,1.95,4.07,6.00,7.40,7.95,7.43,5.77,3.11,0.27,3.96,7.47,10.33,12.10,12.48,11.38,8.89,5.34,1.20,3.00,6.72,9.55,11.23,11.66,10.96,9.32,7.06,4.48,1.89,0.49,2.52,4.15,5.43,6.42,7.19,7.70,7.88,7.59,6.69,5.13,2.95,0.32,2.48,5.09,7.18,8.50,8.92,8.44,7.21,5.42,3.31,1.09,1.06,3.00,4.61,5.76,6.36,6.33,5.67,4.47,2.90,1.21,0.33,1.48,2.06,2.03,1.45,0.54,0.39,0.97,0.94,0.16,1.28,3.12,4.95,6.35,6.95,6.54,5.08,2.77,0.07,3.01,5.61,7.49,8.41,8.28,7.20,5.40,3.17,0.87,1.20,2.84,3.92,4.44,4.47,4.15,3.58,2.89,2.17,1.47,0.81,0.18,0.43,1.02,1.56,2.04,2.39,2.59,2.61,2.46,2.14,1.70,1.18,0.62,0.06,0.47,0.99,1.50,2.07,2.72,
2.23,2.90,3.27,3.36,3.24,2.98,2.65,2.27,1.84,1.37,0.81,0.13,0.65,1.52,2.40,3.20,3.80,4.12,4.07,3.67,2.93,1.92,0.69,0.66,2.03,3.28,4.26,4.81,4.79,4.14,2.91,1.26,0.53,2.11,3.18,3.51,3.06,1.96,0.49,0.97,2.06,2.51,2.22,1.24,0.22,1.87,3.39,4.48,4.94,4.64,3.62,2.00,0.03,2.00,3.78,5.08,5.73,5.72,5.10,4.03,2.68,1.27,0.04,1.10,1.86,2.31,2.54,2.64,2.72,2.90,3.21,3.64,4.07,4.32,4.19,3.48,2.10,0.07,2.47,5.21,7.73,9.61,10.49,10.13,8.47,5.67,2.03,2.01,5.94,9.25,11.52,12.46,11.96,10.12,7.19,3.56,0.33,3.99,7.03,9.13,10.12,9.95,8.75,6.71,4.12,1.29,1.47,3.84,5.57,6.49,6.52,5.72,4.24,2.33,0.28,1.58,2.97,3.66,3.55,2.69,1.25,0.47,2.12,3.36,3.91,3.65,2.62,1.01,
6.79,5.70,4.07,2.04,0.24,2.55,4.70,6.44,7.59,7.96,7.51,6.28,4.42,2.15,0.25,2.50,4.39,5.75,6.51,6.64,6.17,5.20,3.82,2.20,0.51,1.08,2.43,3.44,4.06,4.31,4.24,3.89,3.31,2.54,1.63,0.63,0.42,1.46,2.41,3.17,3.67,3.82,3.55,2.83,1.71,0.30,1.25,2.71,3.85,4.48,4.44,3.69,2.33,0.54,1.40,3.14,4.40,4.95,4.72,3.80,2.45,0.98,0.31,1.20,1.63,1.68,1.52,1.37,1.40,1.69,2.22,2.85,3.36,3.57,3.32,2.55,1.31,0.25,1.87,3.27,4.15,4.34,3.77,2.57,0.98,0.62,1.89,2.53,2.37,1.45,0.05,1.85,3.59,4.93,5.60,5.41,4.36,2.55,0.20,2.37,4.81,6.78,7.98,8.25,7.56,6.01,3.87,1.43,0.98,3.05,4.59,5.47,5.69,5.33,4.53,3.45,2.25,1.08,0.05,0.75,1.27,1.49,1.44,1.20,0.87,0.59,0.47,0.64,
20.94,19.60,16.78,12.87,8.26,3.22,2.13,7.70,13.40,18.99,24.01,27.86,29.82,29.21,25.58,18.84,9.40,1.87,13.71,24.70,33.48,38.95,40.43,37.82,31.51,22.35,11.48,0.16,10.41,19.25,25.69,29.39,30.35,28.86,25.40,20.56,14.97,9.17,3.61,1.40,5.66,9.09,11.69,13.51,14.63,15.12,15.04,14.39,13.18,11.41,9.12,6.37,3.29,0.03,3.21,6.19,8.71,10.60,11.75,12.10,11.69,10.61,9.00,7.01,4.79,2.47,0.15,2.12,4.28,6.28,8.03,9.42,10.29,10.52,10.00,8.68,6.57,3.76,0.43,3.18,6.73,9.85,12.14,13.24,12.91,11.06,7.82,3.51,1.37,6.21,10.39,13.34,14.65,14.13,11.85,8.13,3.46,1.55,6.28,10.15,12.74,13.77,13.19,11.12,7.86,3.87,0.29,4.06,6.90,8.49,8.68,7.61,5.60,3.13,0.72,1.10,1.96,1.68,0.31,1.83,4.22,6.30,7.51,7.45,5.93,3.00,1.00,5.56,
6.21,9.53,12.48,14.91,16.54,16.95,15.66,12.31,6.83,0.41,8.61,16.61,23.12,26.92,27.13,23.39,16.05,6.07,5.06,15.66,24.09,29.09,29.95,26.68,19.93,10.91,1.09,8.03,15.21,19.63,21.01,19.58,16.00,11.12,5.87,1.04,2.79,5.36,6.66,6.90,6.44,5.62,4.76,4.02,3.45,3.01,2.60,2.12,1.52,0.78,0.04,0.85,1.56,2.07,2.37,2.49,2.50,2.51,2.59,2.74,2.91,3.00,2.92,2.59,1.95,1.00,0.24,1.70,3.27,4.81,6.11,6.97,7.22,6.75,5.54,3.65,1.25,1.45,4.15,6.49,8.16,8.87,8.49,7.05,4.77,2.00,0.81,3.21,4.85,5.51,5.14,3.85,1.91,0.32,2.44,4.04,4.80,4.56,3.30,1.23,1.33,3.92,6.12,7.58,8.10,7.65,6.35,4.45,2.24,0.01,2.00,3.63,4.80,5.50,5.80,5.77,5.51,5.08,4.54,3.90,3.16,2.32,1.40,0.40,0.68,1.81,2.91,3.90,
0.24,1.55,2.57,3.11,3.02,2.29,0.99,0.71,2.54,4.23,5.52,6.15,5.96,4.89,3.02,0.55,2.16,4.71,6.67,7.70,7.61,6.42,4.35,1.81,0.69,2.67,3.79,3.95,3.26,2.05,0.73,0.30,0.74,0.44,0.54,2.00,3.60,4.96,5.77,5.77,4.80,2.79,0.17,3.82,7.68,11.08,13.34,13.85,12.27,8.60,3.24,3.10,9.47,14.87,18.42,19.51,17.91,13.79,7.71,0.53,6.71,12.99,17.46,19.57,19.16,16.42,11.90,6.31,0.50,4.78,8.95,11.66,12.86,12.67,11.39,9.38,6.97,4.46,2.06,0.11,1.99,3.59,4.89,5.89,6.59,6.98,7.01,6.64,5.85,4.63,3.01,1.06,1.09,3.25,5.19,6.70,7.55,7.61,6.81,5.21,2.98,0.42,2.12,4.27,5.74,6.35,6.07,4.98,3.30,1.31,0.68,2.39,3.62,4.23,4.22,3.66,2.66,1.39,0.01,1.32,2.45,3.22,3.55,3.38,2.73,1.70,0.41,0.97,
8.25,7.00,5.00,2.58,0.09,2.17,3.98,5.21,5.84,5.94,5.61,5.01,4.26,3.40,2.44,1.33,0.03,1.48,3.12,4.75,6.12,7.00,7.15,6.47,4.96,2.78,0.21,2.39,4.69,6.37,7.22,7.15,6.19,4.51,2.40,0.19,1.79,3.26,4.05,4.11,3.53,2.48,1.20,0.04,1.03,1.57,1.59,1.09,0.16,1.02,2.24,3.24,3.80,3.75,3.01,1.64,0.19,2.23,4.15,5.66,6.52,6.60,5.91,4.56,2.72,0.63,1.50,3.47,5.15,6.40,7.12,7.24,6.68,5.45,3.64,1.42,0.98,3.30,5.26,6.65,7.32,7.25,6.49,5.19,3.53,1.71,0.11,1.77,3.17,4.23,4.88,5.12,4.98,4.52,3.79,2.89,1.90,0.90,0.01,0.76,1.33,1.71,1.95,2.11,2.24,2.40,2.61,2.87,3.10,3.19,3.04,2.54,1.70,0.58,0.67,1.90,2.94,3.70,4.10,4.11,3.73,3.01,2.04,0.98,0.04,0.91,1.54,1.90,
1.59,2.46,2.99,2.99,2.36,1.12,0.58,2.47,4.21,5.48,6.00,5.63,4.36,2.32,0.24,2.97,5.48,7.41,8.48,8.54,7.59,5.76,3.27,0.39,2.60,5.41,7.77,9.41,10.13,9.80,8.43,6.14,3.20,0.04,3.20,5.91,7.90,9.00,9.13,8.36,6.83,4.80,2.56,0.40,1.47,2.90,3.88,4.44,4.69,4.75,4.68,4.54,4.29,3.86,3.20,2.25,1.04,0.38,1.87,3.32,4.58,5.53,6.09,6.20,5.85,5.10,4.04,2.74,1.26,0.37,2.11,3.86,5.50,6.84,7.68,7.84,7.26,5.97,4.15,2.04,0.14,2.17,3.92,5.30,6.27,6.80,6.87,6.49,5.64,4.36,2.73,0.87,1.06,2.87,4.36,5.37,5.81,5.65,4.98,3.96,2.76,1.59,0.59,0.16,0.63,0.88,0.99,1.09,1.28,1.67,2.29,3.12,4.04,4.87,5.40,5.46,4.92,3.74,1.97,0.25,2.73,5.18,7.31,8.80,9.37,8.87,7.29,4.81,
0.21,0.42,0.54,0.61,0.65,0.72,0.88,1.17,1.57,2.06,2.55,2.93,3.07,2.87,2.25,1.22,0.18,1.79,3.40,4.76,5.59,5.72,5.03,3.60,1.64,0.50,2.44,3.83,4.41,4.10,2.99,1.35,0.46,2.03,3.05,3.33,2.83,1.65,0.02,1.76,3.37,4.53,5.04,4.83,3.95,2.55,0.87,0.82,2.31,3.45,4.16,4.46,4.39,4.04,3.50,2.83,2.10,1.35,0.57,0.24,1.13,2.07,3.00,3.81,4.35,4.50,4.22,3.53,2.53,1.39,0.27,0.70,1.45,1.97,2.29,2.48,2.56,2.57,2.53,2.43,2.25,1.96,1.51,0.87,0.03,0.93,1.90,2.72,3.23,3.34,3.01,2.35,1.51,0.66,0.05,0.57,0.95,1.28,1.67,2.18,2.79,3.39,3.78,3.79,3.25,2.09,0.35,1.81,4.12,6.25,7.82,8.48,7.99,6.28,3.52,0.08,3.51,6.65,8.86,9.84,9.51,8.03,5.71,2.95,0.16,2.33,4.25,5.46,
7.89,8.01,7.10,5.33,3.06,0.71,1.29,2.62,3.10,2.75,1.76,0.42,0.92,1.94,2.44,2.33,1.68,0.65,0.57,1.75,2.75,3.44,3.80,3.86,3.68,3.33,2.88,2.34,1.71,0.93,0.05,1.25,2.63,4.04,5.30,6.17,6.46,6.02,4.83,3.03,0.87,1.36,3.35,4.87,5.78,6.02,5.61,4.63,3.24,1.61,0.05,1.54,2.68,3.31,3.37,2.88,1.97,0.87,0.16,0.89,1.15,0.87,0.12,0.94,2.06,2.98,3.51,3.51,2.99,2.01,0.74,0.66,2.03,3.23,4.17,4.81,5.15,5.21,5.02,4.59,3.93,3.03,1.88,0.48,1.14,2.89,4.68,6.33,7.67,8.53,8.74,8.21,6.90,4.87,2.26,0.71,3.76,6.58,8.86,10.30,10.70,9.94,8.05,5.21,1.79,1.78,4.99,7.37,8.57,8.44,7.05,4.70,1.82,1.06,3.44,4.91,5.28,4.55,2.96,0.89,1.19,2.85,3.78,3.86,3.13,1.84,0.32,1.08,
4.25,3.15,1.68,0.01,1.62,2.99,3.88,4.12,3.62,2.41,0.65,1.37,3.30,4.79,5.58,5.51,4.58,2.90,0.71,1.73,4.09,6.10,7.50,8.13,7.90,6.80,4.95,2.53,0.21,3.00,5.54,7.56,8.81,9.15,8.53,7.07,4.99,2.60,0.23,1.83,3.39,4.35,4.74,4.69,4.39,4.02,3.74,3.61,3.59,3.57,3.40,2.95,2.13,0.93,0.55,2.18,3.78,5.13,6.08,6.49,6.35,5.69,4.65,3.38,2.05,0.76,0.38,1.34,2.11,2.72,3.22,3.70,4.19,4.71,5.23,5.65,5.82,5.55,4.70,3.18,1.05,1.51,4.21,6.70,8.63,9.69,9.68,8.55,6.42,3.54,0.30,2.85,5.49,7.28,8.01,7.65,6.34,4.35,2.06,0.13,1.90,3.01,3.39,3.09,2.33,1.38,0.51,0.04,0.14,0.23,0.94,1.77,2.44,2.71,2.38,1.41,0.09,1.90,3.66,5.04,5.72,5.56,4.54,2.82,0.71,1.45,3.30,4.58,
4.03,8.49,11.75,13.44,13.44,11.85,9.00,5.34,1.41,2.32,5.44,7.71,9.02,9.36,8.83,7.55,5.71,3.50,1.12,1.23,3.37,5.11,6.34,6.96,6.92,6.23,4.92,3.08,0.89,1.43,3.61,5.43,6.66,7.18,6.92,5.94,4.33,2.29,0.02,2.28,4.40,6.12,7.27,7.71,7.40,6.35,4.68,2.58,0.27,1.97,3.91,5.35,6.18,6.39,6.03,5.20,4.06,2.74,1.42,0.20,0.84,1.65,2.25,2.63,2.81,2.82,2.72,2.58,2.50,2.51,2.60,2.68,2.65,2.36,1.71,0.64,0.81,2.52,4.28,5.83,6.93,7.39,7.11,6.07,4.36,2.13,0.41,3.02,5.44,7.44,8.82,9.45,9.24,8.19,6.39,3.98,1.18,1.73,4.44,6.69,8.26,9.04,9.01,8.24,6.86,5.07,3.05,0.98,0.99,2.75,4.20,5.28,5.94,6.17,5.98,5.42,4.61,3.65,2.68,1.75,0.90,0.07,0.82,1.88,3.16,4.61,6.10,7.35,
1.93,1.90,1.68,1.19,0.41,0.61,1.74,2.78,3.56,3.91,3.74,3.08,2.03,0.77,0.50,1.59,2.35,2.73,2.71,2.32,1.66,0.81,0.06,0.83,1.37,1.63,1.56,1.20,0.58,0.22,1.07,1.86,2.44,2.69,2.52,1.89,0.86,0.44,1.77,2.90,3.62,3.81,3.45,2.65,1.60,0.51,0.41,1.02,1.30,1.30,1.14,0.97,0.92,1.08,1.43,1.92,2.43,2.83,3.00,2.83,2.26,1.31,0.05,1.36,2.76,3.97,4.86,5.32,5.33,4.89,4.06,2.92,1.58,0.11,1.38,2.82,4.14,5.27,6.13,6.65,6.70,6.21,5.09,3.36,1.09,1.55,4.28,6.77,8.70,9.73,9.68,8.45,6.13,2.92,0.81,4.59,7.92,10.34,11.49,11.17,9.39,6.35,2.45,1.82,5.90,9.26,11.46,12.21,11.44,9.28,6.03,2.12,1.92,5.59,8.46,10.21,10.72,10.01,8.25,5.72,2.78,0.19,2.81,4.78,5.91,6.15,5.60,4.50,
1.30,3.21,4.24,4.24,3.28,1.64,0.24,1.87,2.76,2.63,1.41,0.69,3.26,5.75,7.59,8.35,7.76,5.80,2.70,1.11,5.07,8.59,11.17,12.46,12.30,10.74,8.00,4.47,0.60,3.16,6.40,8.85,10.31,10.75,10.24,8.95,7.17,5.19,3.27,1.59,0.22,0.87,1.82,2.81,3.99,5.41,7.01,8.58,9.84,10.48,10.25,8.98,6.67,3.51,0.18,3.98,7.45,10.20,11.91,12.43,11.71,9.88,7.24,4.15,1.07,1.60,3.55,4.63,4.89,4.53,3.81,3.04,2.48,2.30,2.57,3.22,4.06,4.85,5.33,5.28,4.58,3.21,1.27,1.04,3.47,5.74,7.57,8.75,9.19,8.85,7.82,6.24,4.31,2.19,0.04,2.03,3.93,5.60,6.96,7.98,8.59,8.70,8.25,7.18,5.50,3.32,0.79,1.88,4.46,6.72,8.44,9.46,9.69,9.08,7.70,5.68,3.25,0.65,1.86,4.06,5.80,6.96,7.48,7.34,6.61,5.43,3.98,2.44,
0.19,0.68,1.21,1.77,2.34,2.88,3.31,3.55,3.52,3.19,2.54,1.62,0.53,0.58,1.57,2.27,2.61,2.56,2.20,1.67,1.13,0.75,0.59,0.67,0.94,1.30,1.62,1.81,1.78,1.49,0.92,0.14,0.75,1.61,2.30,2.72,2.82,2.63,2.23,1.76,1.32,0.98,0.75,0.58,0.41,0.18,0.14,0.54,0.97,1.36,1.69,1.91,2.03,2.02,1.90,1.65,1.30,0.85,0.36,0.14,0.60,0.97,1.23,1.36,1.38,1.36,1.32,1.29,1.28,1.27,1.21,1.10,0.89,0.54,0.04,0.64,1.47,2.37,3.24,3.91,4.26,4.14,3.50,2.33,0.74,1.10,2.97,4.59,5.74,6.22,5.98,5.08,3.67,1.98,0.27,1.24,2.39,3.11,3.42,3.40,3.15,2.81,2.47,2.20,2.02,1.92,1.84,1.75,1.58,1.29,0.84,0.17,0.72,1.82,3.02,4.21,5.22,5.92,6.17,5.89,5.03,3.62,1.70,0.57,3.00,5.33,7.25,8.48,
4.60,0.39,3.79,7.50,10.37,12.13,12.55,11.52,9.01,5.13,0.14,5.46,11.08,16.00,19.54,21.15,20.49,17.48,12.34,5.54,2.26,10.29,17.76,23.96,28.32,30.43,30.09,27.31,22.26,15.31,6.96,2.13,11.24,19.61,26.52,31.37,33.72,33.37,30.34,24.94,17.68,9.23,0.40,8.02,15.28,20.79,24.17,25.33,24.42,21.81,17.98,13.45,8.67,4.01,0.28,4.05,7.27,9.95,12.13,13.83,15.02,15.61,15.47,14.41,12.33,9.24,5.31,0.89,3.60,7.75,11.19,13.71,15.23,15.78,15.45,14.31,12.42,9.76,6.35,2.25,2.33,7.03,11.35,14.73,16.67,16.81,15.04,11.54,6.77,1.37,3.89,8.28,11.22,12.36,11.68,9.40,6.00,2.06,1.75,4.85,6.78,7.35,6.61,4.85,2.53,0.15,1.79,2.96,3.20,2.56,1.29,0.28,1.74,2.76,3.11,2.73,1.73,0.35,1.09,2.25,2.88,2.86,2.23,1.24,0.20,0.52,0.59,0.20,
3.91,4.67,6.20,8.45,11.01,13.15,13.97,12.66,8.75,2.33,5.87,14.61,22.36,27.61,29.18,26.51,19.79,9.94,1.56,12.95,22.52,28.95,31.44,29.87,24.72,16.96,7.81,1.39,9.48,15.59,19.23,20.35,19.24,16.48,12.77,8.79,5.11,2.09,0.12,1.56,2.43,2.99,3.52,4.19,5.09,6.18,7.28,8.16,8.59,8.41,7.55,6.04,4.01,1.68,0.68,2.79,4.41,5.38,5.65,5.29,4.46,3.38,2.29,1.41,0.85,0.67,0.81,1.15,1.53,1.77,1.78,1.52,1.07,0.55,0.05,0.40,0.79,1.18,1.64,2.19,2.83,3.49,4.09,4.52,4.67,4.48,3.91,2.98,1.78,0.41,1.02,2.42,3.69,4.78,5.65,6.28,6.64,6.68,6.34,5.60,4.46,2.97,1.24,0.61,2.45,4.17,5.65,6.80,7.56,7.87,7.73,7.16,6.21,4.95,3.47,1.82,0.07,1.73,3.52,5.20,6.69,7.88,8.69,9.03,8.86,8.15,6.94,5.34,
0.24,0.74,1.59,2.69,3.82,4.79,5.43,5.66,5.47,4.86,3.88,2.53,0.81,1.27,3.61,6.06,8.36,10.19,11.23,11.24,10.09,7.81,4.59,0.77,3.21,6.88,9.81,11.65,12.21,11.48,9.64,6.97,3.83,0.61,2.35,4.75,6.41,7.24,7.23,6.48,5.13,3.40,1.54,0.20,1.58,2.45,2.71,2.38,1.54,0.38,0.84,1.87,2.48,2.50,1.90,0.73,0.83,2.50,4.01,5.06,5.43,5.01,3.83,2.04,0.07,2.15,3.86,4.93,5.18,4.63,3.44,1.87,0.25,1.11,2.01,2.36,2.19,1.62,0.84,0.02,0.70,1.29,1.72,2.01,2.16,2.12,1.81,1.15,0.12,1.22,2.77,4.31,5.60,6.40,6.51,5.82,4.34,2.23,0.25,2.77,4.98,6.64,7.57,7.73,7.19,6.08,4.62,3.02,1.46,0.08,1.03,1.88,2.53,3.09,3.65,4.24,4.82,5.29,5.50,5.28,4.55,3.31,1.66,0.16,1.89,3.27,4.10,4.30,
0.96,0.64,1.69,1.97,1.44,0.27,1.17,2.43,3.04,2.65,1.14,1.36,4.45,7.54,9.97,11.12,10.58,8.24,4.35,0.56,5.78,10.55,14.20,16.23,16.39,14.69,11.35,6.79,1.57,3.71,8.47,12.22,14.60,15.45,14.76,12.71,9.60,5.83,1.84,1.98,5.27,7.80,9.44,10.13,9.92,8.92,7.28,5.23,2.99,0.77,1.26,2.97,4.30,5.26,5.88,6.16,6.11,5.67,4.79,3.41,1.55,0.68,3.06,5.29,6.99,7.81,7.53,6.10,3.70,0.70,2.39,5.04,6.79,7.36,6.68,4.89,2.33,0.52,3.14,5.04,5.88,5.53,4.05,1.75,0.93,3.49,5.41,6.29,5.91,4.28,1.65,1.52,4.68,7.25,8.74,8.87,7.57,5.02,1.63,2.10,5.58,8.29,9.86,10.11,9.09,7.01,4.22,1.15,1.80,4.28,6.06,7.05,7.27,6.80,5.84,4.57,3.21,1.92,0.80,0.15,0.99,1.82,2.74,3.77,4.85,5.85,6.54,6.69,
6.89,4.29,1.03,2.54,5.99,8.90,10.89,11.66,11.09,9.25,6.41,2.97,0.59,3.82,6.35,7.95,8.57,8.28,7.28,5.82,4.18,2.60,1.25,0.21,0.54,1.09,1.59,2.16,2.88,3.73,4.64,5.50,6.17,6.52,6.44,5.87,4.79,3.21,1.20,1.13,3.61,6.03,8.16,9.76,10.64,10.66,9.79,8.07,5.65,2.78,0.25,3.15,5.66,7.57,8.82,9.42,9.44,8.98,8.16,7.04,5.68,4.10,2.29,0.28,1.89,4.12,6.24,8.10,9.52,10.34,10.48,9.87,8.53,6.51,3.95,1.04,1.98,4.85,7.33,9.20,10.32,10.59,10.01,8.63,6.58,4.03,1.22,1.53,3.94,5.75,6.78,6.98,6.43,5.32,3.94,2.59,1.52,0.86,0.61,0.65,0.78,0.77,0.47,0.24,1.33,2.69,4.13,5.40,6.25,6.50,6.02,4.83,3.04,0.85,1.45,3.58,5.29,6.38,6.74,6.38,5.41,4.00,2.38,0.77,0.66,1.76,2.45,2.73,
9.22,10.65,11.24,10.73,9.05,6.28,2.69,1.35,5.37,8.91,11.58,13.09,13.33,12.35,10.35,7.60,4.44,1.20,1.82,4.36,6.27,7.48,8.03,8.04,7.64,6.95,6.08,5.07,3.89,2.49,0.82,1.11,3.24,5.37,7.21,8.46,8.83,8.16,6.43,3.81,0.61,2.71,5.66,7.79,8.79,8.52,7.07,4.72,1.89,0.98,3.49,5.36,6.43,6.69,6.23,5.20,3.80,2.19,0.54,1.06,2.53,3.82,4.84,5.54,5.84,5.70,5.08,3.99,2.47,0.63,1.39,3.37,5.09,6.36,7.02,6.99,6.29,4.99,3.26,1.29,0.72,2.56,4.09,5.20,5.84,5.99,5.68,4.98,3.95,2.68,1.28,0.15,1.52,2.73,3.72,4.42,4.78,4.75,4.32,3.53,2.45,1.21,0.08,1.31,2.42,3.32,3.98,4.33,4.33,3.92,3.06,1.78,0.15,1.66,3.43,4.89,5.79,5.95,5.32,3.93,1.99,0.23,2.39,4.17,5.36,5.83,5.61,4.80,
0.92,1.31,1.60,1.77,1.81,1.77,1.77,1.99,2.56,3.52,4.81,6.18,7.30,7.77,7.22,5.41,2.31,1.87,6.67,11.46,15.51,18.13,18.79,17.23,13.52,8.06,1.49,5.35,11.60,16.48,19.44,20.15,18.62,15.11,10.12,4.35,1.45,6.55,10.35,12.48,12.81,11.48,8.87,5.54,2.11,0.87,2.97,3.96,3.83,2.81,1.24,0.41,1.71,2.31,2.05,0.96,0.72,2.65,4.40,5.62,6.02,5.48,4.02,1.83,0.77,3.40,5.66,7.21,7.78,7.28,5.72,3.30,0.35,2.69,5.37,7.25,8.01,7.53,5.91,3.43,0.57,2.14,4.23,5.37,5.48,4.70,3.34,1.81,0.49,0.36,0.63,0.40,0.17,0.83,1.33,1.46,1.10,0.23,1.05,2.54,3.99,5.12,5.72,5.63,4.84,3.44,1.63,0.33,2.17,3.69,4.73,5.23,5.23,4.84,4.18,3.38,2.55,1.76,1.02,0.37,0.22,0.76,1.30,1.87,2.48,3.11,3.75,4.34,
2.29,2.00,1.74,1.48,1.19,0.78,0.17,0.74,1.95,3.44,5.03,6.50,7.58,7.98,7.51,6.06,3.70,0.67,2.66,5.83,8.43,10.08,10.59,9.91,8.20,5.70,2.78,0.21,2.93,5.11,6.58,7.28,7.26,6.63,5.57,4.23,2.78,1.34,0.01,1.12,1.99,2.55,2.78,2.70,2.41,2.00,1.59,1.30,1.19,1.30,1.60,2.04,2.51,2.90,3.04,2.81,2.09,0.88,0.76,2.67,4.60,6.24,7.30,7.53,6.80,5.13,2.72,0.07,2.80,5.03,6.41,6.73,5.98,4.37,2.21,0.09,2.11,3.52,4.12,3.89,2.93,1.48,0.17,1.76,3.04,3.81,3.98,3.56,2.65,1.43,0.13,1.07,2.00,2.57,2.77,2.65,2.28,1.79,1.27,0.81,0.44,0.19,0.04,0.03,0.05,0.04,0.03,0.03,0.11,0.29,0.59,0.98,1.39,1.73,1.93,1.95,1.78,1.47,1.07,0.66,0.28,0.03,0.32,0.62,1.00,1.48,2.07,2.70,
1.50,2.94,3.90,4.31,4.20,3.68,2.96,2.25,1.74,1.50,1.53,1.73,1.95,1.99,1.71,1.00,0.12,1.55,3.10,4.55,5.68,6.30,6.33,5.77,4.69,3.20,1.44,0.41,2.24,3.91,5.33,6.44,7.16,7.46,7.27,6.54,5.27,3.45,1.16,1.48,4.23,6.79,8.84,10.03,10.13,9.04,6.85,3.85,0.46,2.82,5.53,7.33,8.05,7.74,6.59,4.92,3.03,1.21,0.34,1.52,2.32,2.86,3.37,4.07,5.00,5.95,6.48,6.07,4.26,0.94,3.66,8.88,13.76,17.26,18.44,16.71,11.99,4.74,4.07,13.17,21.16,26.82,29.27,28.13,23.53,16.10,6.80,3.18,12.62,20.43,25.79,28.27,27.86,24.89,19.99,13.90,7.36,0.97,4.80,9.70,13.58,16.41,18.20,18.96,18.71,17.44,15.16,11.90,7.79,3.05,2.00,6.96,11.41,14.93,17.18,17.94,17.15,14.94,11.58,7.50,3.16,0.97,4.51,7.21,8.98,9.88,10.07,9.80,
1.86,1.49,4.41,6.65,8.07,8.67,8.52,7.75,6.53,5.05,3.47,1.92,0.49,0.80,1.93,2.92,3.78,4.46,4.95,5.18,5.14,4.78,4.09,3.07,1.76,0.27,1.24,2.57,3.56,4.11,4.22,3.95,3.44,2.83,2.23,1.70,1.23,0.74,0.18,0.48,1.21,1.94,2.56,2.99,3.13,2.94,2.43,1.66,0.73,0.20,0.99,1.50,1.64,1.41,0.86,0.10,0.73,1.45,1.90,1.96,1.59,0.80,0.30,1.55,2.75,3.71,4.25,4.24,3.66,2.56,1.12,0.44,1.86,2.95,3.59,3.74,3.46,2.87,2.11,1.34,0.67,0.17,0.17,0.41,0.63,0.92,1.29,1.74,2.17,2.50,2.61,2.41,1.88,1.04,0.05,1.26,2.43,3.37,3.96,4.08,3.73,2.93,1.76,0.35,1.20,2.74,4.11,5.16,5.72,5.64,4.83,3.33,1.27,1.08,3.36,5.22,6.35,6.55,5.81,4.27,2.20,0.05,2.10,3.64,4.44,4.45,3.74,2.52,
0.87,1.03,0.95,0.68,0.38,0.22,0.33,0.81,1.64,2.69,3.76,4.60,4.98,4.75,3.87,2.42,0.56,1.51,3.55,5.34,6.71,7.55,7.82,7.57,6.86,5.77,4.37,2.74,0.90,1.11,3.26,5.49,7.67,9.62,11.09,11.81,11.56,10.21,7.77,4.43,0.53,3.48,7.15,10.06,11.93,12.68,12.38,11.22,9.48,7.39,5.13,2.82,0.48,1.87,4.23,6.54,8.69,10.50,11.76,12.25,11.82,10.42,8.12,5.13,1.72,1.76,5.00,7.73,9.73,10.91,11.24,10.80,9.71,8.10,6.09,3.80,1.34,1.16,3.55,5.64,7.26,8.28,8.64,8.35,7.48,6.17,4.55,2.78,1.01,0.65,2.10,3.29,4.22,4.87,5.27,5.46,5.44,5.18,4.64,3.76,2.52,0.94,0.89,2.79,4.52,5.82,6.45,6.29,5.33,3.70,1.65,0.51,2.43,3.83,4.52,4.45,3.70,2.45,0.93,0.57,1.81,2.59,2.78,2.40,1.53,0.36,0.86,1.90,
7.26,6.49,5.10,3.37,1.54,0.22,1.81,3.22,4.48,5.61,6.60,7.35,7.70,7.47,6.50,4.70,2.17,0.89,4.12,7.13,9.49,10.85,11.00,9.91,7.74,4.82,1.61,1.45,3.93,5.56,6.25,6.07,5.25,4.16,3.18,2.61,2.57,2.97,3.57,4.01,3.93,3.09,1.45,0.86,3.53,6.14,8.25,9.47,9.54,8.40,6.15,3.09,0.35,3.69,6.42,8.15,8.65,7.88,6.02,3.43,0.57,2.08,4.10,5.23,5.39,4.65,3.20,1.28,0.79,2.70,4.15,4.89,4.78,3.83,2.17,0.05,2.20,4.22,5.64,6.22,5.83,4.50,2.41,0.11,2.66,4.84,6.29,6.76,6.18,4.63,2.35,0.28,2.85,4.96,6.28,6.64,6.01,4.52,2.40,0.04,2.46,4.55,6.03,6.70,6.49,5.41,3.64,1.42,0.93,3.11,4.82,5.86,6.12,5.63,4.51,3.02,1.40,0.08,1.25,2.01,2.41,2.57,2.62,2.70,2.86,3.09,3.30,3.36,
5.01,4.20,2.58,0.18,4.05,8.51,12.58,15.02,14.70,10.98,3.92,5.63,16.08,25.46,31.76,33.43,29.66,20.66,7.60,7.56,22.46,34.75,42.50,44.56,40.72,31.72,19.06,4.74,9.16,20.77,28.78,32.54,32.15,28.31,22.13,14.89,7.72,1.53,3.22,6.40,8.23,9.13,9.58,9.97,10.52,11.20,11.78,11.86,11.08,9.14,6.00,1.86,2.79,7.27,10.87,12.97,13.19,11.53,8.32,4.23,0.07,3.23,4.86,4.32,1.67,2.40,6.69,9.80,10.48,8.01,2.45,5.38,13.98,21.57,26.43,27.34,23.78,16.10,5.42,6.56,17.91,26.82,31.95,32.65,29.04,21.99,12.84,3.18,5.49,12.00,15.74,16.68,15.36,12.70,9.77,7.53,6.62,7.23,9.05,11.35,13.16,13.52,11.72,7.49,1.09,6.73,14.92,22.27,27.64,30.21,29.55,25.71,19.17,10.75,1.44,7.71,15.73,21.86,25.60,26.74,25.32,21.64,16.16,9.46,2.18,5.03,11.56,16.84,
17.23,12.87,7.68,2.26,2.86,7.48,11.65,15.67,19.82,24.19,28.57,32.41,34.85,34.98,31.98,25.40,15.29,2.32,12.31,27.06,40.21,50.21,55.87,56.54,52.18,43.31,30.92,16.31,0.92,13.87,26.83,37.06,43.99,47.35,47.24,44.00,38.17,30.43,21.50,12.09,2.78,5.95,13.79,20.55,26.11,30.39,33.29,34.68,34.43,32.39,28.45,22.64,15.17,6.47,2.87,12.13,20.57,27.54,32.53,35.24,35.57,33.61,29.58,23.79,16.66,8.64,0.26,7.99,15.63,22.26,27.55,31.24,33.09,32.97,30.80,26.63,20.67,13.30,5.03,3.53,11.74,18.96,24.65,28.37,29.84,29.02,26.06,21.36,15.46,8.99,2.59,3.22,8.05,11.68,14.04,15.21,15.29,14.49,12.99,11.03,8.86,6.70,4.76,3.16,1.93,0.96,0.07,1.01,2.56,4.76,7.61,10.93,14.31,17.19,18.95,19.01,17.02,12.89,6.86,0.52,8.49,16.16,22.62,27.04,28.84,27.72,23.74,17.34,
1.19,0.71,0.28,0.11,0.34,0.99,1.87,2.69,3.13,2.93,1.99,0.40,1.62,3.73,5.58,6.84,7.27,6.75,5.33,3.18,0.59,2.09,4.51,6.36,7.42,7.58,6.87,5.42,3.50,1.42,0.51,2.02,2.98,3.34,3.22,2.80,2.30,1.90,1.74,1.86,2.19,2.60,2.88,2.89,2.49,1.65,0.45,0.97,2.44,3.73,4.66,5.09,4.97,4.31,3.22,1.90,0.54,0.65,1.54,2.07,2.27,2.23,2.07,1.94,1.90,1.98,2.13,2.25,2.20,1.85,1.11,0.01,1.44,2.98,4.37,5.37,5.72,5.27,3.99,1.98,0.48,3.05,5.31,6.87,7.43,6.87,5.25,2.80,0.09,2.96,5.36,6.96,7.52,6.99,5.46,3.17,0.45,2.33,4.77,6.53,7.37,7.21,6.08,4.21,1.90,0.51,2.66,4.25,5.08,5.10,4.40,3.19,1.76,0.44,0.50,0.91,0.79,0.29,0.35,0.85,0.99,0.65,0.16,1.31,2.56,3.65,4.29,4.29,
4.10,4.12,3.88,3.35,2.47,1.15,0.68,3.00,5.64,8.28,10.47,11.75,11.74,10.20,7.16,2.90,2.10,7.18,11.65,14.90,16.46,16.15,14.03,10.47,5.97,1.14,3.44,7.30,10.11,11.74,12.22,11.70,10.44,8.68,6.64,4.47,2.24,0.02,2.16,4.20,6.00,7.45,8.42,8.82,8.58,7.72,6.32,4.53,2.48,0.37,1.63,3.35,4.63,5.39,5.62,5.36,4.70,3.79,2.83,2.01,1.49,1.39,1.67,2.20,2.73,2.94,2.55,1.32,0.91,4.16,8.12,12.18,15.50,17.15,16.34,12.63,6.13,2.49,12.01,20.92,27.65,30.90,29.88,24.50,15.39,3.81,8.58,20.00,28.86,33.94,34.64,31.02,23.74,13.99,3.20,7.17,15.83,21.85,24.78,24.66,21.93,17.37,11.85,6.25,1.26,2.67,5.35,6.87,7.50,7.60,7.54,7.57,7.77,8.07,8.26,8.11,7.36,5.87,3.59,0.68,2.55,5.67,8.24,9.89,10.41,9.76,8.11,5.77,
1.99,3.03,3.87,4.39,4.47,4.06,3.17,1.86,0.28,1.36,2.83,3.90,4.41,4.28,3.54,2.31,0.82,0.64,1.80,2.44,2.45,1.84,0.78,0.45,1.55,2.26,2.40,1.93,0.95,0.38,1.81,3.10,4.05,4.51,4.42,3.79,2.73,1.38,0.07,1.44,2.59,3.45,3.99,4.25,4.27,4.14,3.91,3.63,3.28,2.80,2.11,1.11,0.26,1.97,3.87,5.76,7.35,8.40,8.70,8.17,6.81,4.73,2.12,0.80,3.78,6.54,8.82,10.36,10.97,10.55,9.07,6.63,3.45,0.15,3.77,6.96,9.33,10.58,10.58,9.40,7.27,4.56,1.65,1.11,3.42,5.09,6.05,6.27,5.87,4.98,3.82,2.61,1.56,0.83,0.45,0.35,0.37,0.31,0.01,0.71,1.81,3.18,4.59,5.77,6.46,6.48,5.75,4.32,2.37,0.15,2.04,3.97,5.45,6.38,6.73,6.54,5.90,4.94,3.77,2.52,1.27,0.09,1.02,2.07,3.10,4.11,5.07,5.89,
0.93,1.50,1.77,1.69,1.27,0.61,0.15,0.84,1.30,1.44,1.24,0.73,0.02,0.78,1.54,2.14,2.50,2.58,2.38,1.93,1.24,0.35,0.70,1.83,2.94,3.88,4.47,4.57,4.08,3.03,1.50,0.29,2.12,3.74,4.94,5.57,5.55,4.89,3.67,2.02,0.12,1.82,3.59,5.02,5.98,6.41,6.29,5.59,4.36,2.63,0.51,1.84,4.20,6.27,7.71,8.23,7.72,6.28,4.23,2.02,0.11,1.14,1.55,1.24,0.52,0.12,0.21,0.59,2.40,5.03,8.06,10.86,12.75,13.14,11.70,8.38,3.54,2.20,7.98,12.95,16.34,17.66,16.79,13.94,9.68,4.74,0.11,4.21,7.14,8.71,9.00,8.31,7.01,5.50,4.12,3.05,2.31,1.82,1.36,0.78,0.06,1.14,2.37,3.57,4.54,5.11,5.14,4.63,3.64,2.30,0.79,0.69,1.98,2.93,3.50,3.71,3.61,3.29,2.83,2.28,1.64,0.87,0.04,1.09,2.24,3.39,4.42,5.15,
3.79,5.58,7.25,8.81,10.13,10.94,10.81,9.34,6.26,1.59,4.29,10.67,16.59,21.05,23.13,22.27,18.34,11.71,3.22,5.98,14.62,21.49,25.66,26.64,24.40,19.38,12.36,4.36,3.57,10.46,15.53,18.30,18.62,16.70,13.02,8.25,3.15,1.54,5.24,7.60,8.46,7.91,6.21,3.78,1.06,1.49,3.51,4.77,5.17,4.74,3.62,2.04,0.27,1.42,2.84,3.89,4.56,4.90,4.99,4.89,4.65,4.27,3.69,2.82,1.59,0.06,2.10,4.40,6.71,8.70,10.00,10.32,9.46,7.43,4.43,0.82,2.94,6.36,9.03,10.65,11.10,10.43,8.81,6.53,3.92,1.30,1.03,2.92,4.28,5.19,5.78,6.21,6.59,6.97,7.30,7.41,7.07,6.05,4.21,1.58,1.66,5.12,8.33,10.76,12.01,11.83,10.20,7.37,3.76,0.11,3.64,6.35,7.85,8.00,6.85,4.69,1.99,0.74,3.00,4.36,4.61,3.71,1.84,0.62,3.21,5.41,6.78,7.04,
9.18,10.87,11.47,10.77,8.75,5.67,1.99,1.70,4.77,6.74,7.33,6.56,4.68,2.15,0.47,2.67,4.02,4.32,3.57,1.96,0.15,2.35,4.24,5.49,5.91,5.46,4.28,2.59,0.72,1.01,2.29,2.94,2.96,2.51,1.90,1.48,1.50,2.09,3.19,4.54,5.78,6.48,6.29,4.98,2.55,0.76,4.49,8.07,10.90,12.51,12.61,11.15,8.35,4.59,0.40,3.63,6.99,9.27,10.29,10.07,8.84,6.91,4.67,2.44,0.48,1.08,2.21,2.97,3.45,3.74,3.93,4.04,4.04,3.89,3.53,2.92,2.06,0.95,0.35,1.77,3.18,4.42,5.31,5.68,5.37,4.32,2.60,0.36,2.10,4.45,6.36,7.53,7.75,6.95,5.17,2.62,0.36,3.39,6.06,8.01,8.97,8.84,7.67,5.65,3.12,0.43,2.06,4.10,5.54,6.31,6.47,6.10,5.29,4.19,2.90,1.54,0.25,0.89,1.79,2.43,2.78,2.89,2.78,2.51,2.13,1.68,1.19,0.72,
2.85,4.42,6.13,7.64,8.54,8.43,6.93,3.87,0.69,6.36,12.44,18.04,22.15,23.86,22.54,18.00,10.55,1.02,9.38,19.24,27.13,31.92,32.90,29.93,23.41,14.27,3.74,6.77,15.94,22.71,26.46,27.04,24.73,20.20,14.29,7.90,1.85,3.24,7.03,9.42,10.56,10.74,10.34,9.69,9.01,8.41,7.85,7.20,6.28,4.95,3.15,0.90,1.70,4.46,7.09,9.31,10.83,11.45,11.11,9.84,7.82,5.27,2.47,0.30,2.83,4.95,6.54,7.54,7.92,7.73,7.06,6.05,4.84,3.56,2.33,1.19,0.15,0.80,1.71,2.61,3.52,4.41,5.19,5.77,6.02,5.86,5.21,4.09,2.55,0.71,1.26,3.17,4.81,6.02,6.66,6.72,6.19,5.15,3.73,2.10,0.40,1.21,2.63,3.81,4.75,5.49,6.06,6.43,6.52,6.19,5.27,3.67,1.40,1.40,4.42,7.26,9.51,10.78,10.81,9.53,7.09,3.84,0.27,3.06,5.65,7.13,7.35,6.39,
0.48,3.66,6.00,7.34,7.69,7.24,6.20,4.79,3.20,1.57,0.00,1.41,2.62,3.59,4.29,4.66,4.63,4.16,3.23,1.90,0.28,1.47,3.13,4.49,5.35,5.58,5.09,3.95,2.28,0.30,1.73,3.56,4.93,5.64,5.59,4.78,3.38,1.70,0.10,1.07,1.59,1.38,0.60,0.44,1.33,1.67,1.21,0.15,2.25,4.76,7.20,9.03,9.80,9.22,7.22,3.99,0.05,4.34,8.24,11.19,12.76,12.73,11.15,8.26,4.52,0.46,3.33,6.36,8.25,8.82,8.09,6.28,3.74,0.92,1.69,3.68,4.73,4.72,3.68,1.86,0.37,2.59,4.37,5.36,5.39,4.45,2.70,0.46,1.90,3.98,5.48,6.17,5.98,5.00,3.42,1.56,0.28,1.84,2.95,3.58,3.76,3.58,3.15,2.56,1.88,1.13,0.33,0.50,1.35,2.14,2.79,3.14,3.11,2.62,1.70,0.47,0.87,2.09,3.00,3.46,3.43,2.97,2.18,1.23,0.25,0.65,1.38,1.91,
7.77,8.59,8.43,6.99,4.26,0.60,3.33,6.68,8.63,8.62,6.51,2.63,2.25,7.10,10.85,12.60,11.79,8.35,2.70,4.32,11.55,17.76,21.87,23.11,21.19,16.33,9.21,0.82,7.67,15.14,20.67,23.65,23.85,21.44,16.93,11.03,4.59,1.58,6.83,10.67,12.88,13.46,12.66,10.84,8.45,5.91,3.55,1.61,0.15,0.84,1.53,2.10,2.72,3.48,4.34,5.13,5.62,5.57,4.83,3.39,1.38,0.89,3.06,4.72,5.52,5.27,3.98,1.85,0.74,3.27,5.24,6.20,5.92,4.39,1.87,1.19,4.24,6.72,8.23,8.56,7.72,5.89,3.37,0.52,2.28,4.70,6.49,7.51,7.71,7.15,5.97,4.34,2.48,0.56,1.24,2.77,3.93,4.66,4.92,4.71,4.08,3.10,1.92,0.70,0.37,1.16,1.58,1.64,1.40,1.02,0.65,0.43,0.42,0.63,1.02,1.46,1.83,1.97,1.83,1.38,0.67,0.18,1.03,1.74,2.19,2.33,2.15,1.73,
6.11,0.92,4.16,8.55,11.77,13.48,13.47,11.73,8.46,4.03,0.97,5.86,9.93,12.59,13.44,12.37,9.59,5.52,0.78,3.98,8.09,11.03,12.43,12.22,10.53,7.73,4.28,0.71,2.51,4.97,6.43,6.80,6.16,4.76,2.94,1.08,0.50,1.51,1.82,1.38,0.29,1.29,3.24,5.58,8.30,11.17,13.58,14.63,13.34,9.01,1.45,8.76,20.33,31.44,40.00,44.15,42.58,34.89,21.68,4.55,14.19,31.95,46.23,55.09,57.42,53.06,42.83,28.28,11.49,5.32,20.14,31.41,38.25,40.45,38.47,33.25,25.98,17.93,10.15,3.39,2.01,6.08,9.08,11.37,13.28,14.97,16.42,17.44,17.73,16.98,15.01,11.82,7.63,2.85,1.99,6.38,9.86,12.17,13.21,13.06,11.95,10.22,8.24,6.35,4.78,3.59,2.73,1.99,1.11,0.12,1.83,3.98,6.35,8.63,10.49,11.62,11.82,11.02,9.25,6.64,3.43,0.10,3.66,6.95,9.72,11.77,12.91,13.04,
6.04,3.34,0.04,3.68,7.48,10.84,13.09,13.64,12.07,8.33,2.74,3.97,10.78,16.55,20.19,20.87,18.19,12.28,3.80,6.14,16.13,24.69,30.51,32.63,30.63,24.69,15.50,4.24,7.70,18.90,28.08,34.29,36.95,35.92,31.43,24.10,14.75,4.42,5.84,15.07,22.47,27.52,29.96,29.82,27.35,22.98,17.23,10.63,3.68,3.12,9.36,14.64,18.63,21.09,21.86,20.93,18.44,14.68,10.04,5.00,0.03,4.46,8.15,10.87,12.54,13.15,12.81,11.62,9.76,7.41,4.79,2.12,0.34,2.41,3.92,4.82,5.10,4.82,4.09,3.04,1.85,0.68,0.31,0.96,1.17,0.90,0.18,0.91,2.22,3.57,4.77,5.59,5.85,5.42,4.24,2.40,0.06,2.51,4.99,7.10,8.58,9.32,9.26,8.49,7.12,5.33,3.25,1.04,1.23,3.46,5.55,7.38,8.77,9.55,9.56,8.74,7.10,4.80,2.13,0.57,2.94,4.69,5.64,5.76,5.16,4.05,2.68,1.24,
2.20,0.47,1.25,2.84,4.16,4.92,4.76,3.27,0.27,4.14,9.43,14.71,18.85,20.74,19.52,14.85,7.02,3.07,14.02,24.16,31.90,35.95,35.58,30.73,22.02,10.61,1.93,13.95,23.93,30.74,33.77,32.95,28.73,21.98,13.76,5.23,2.60,8.96,13.39,15.80,16.37,15.48,13.58,11.10,8.36,5.62,3.07,0.89,0.78,1.83,2.24,2.06,1.45,0.67,0.03,0.35,0.11,0.82,2.38,4.40,6.55,8.45,9.70,10.02,9.23,7.35,4.56,1.14,2.55,6.15,9.31,11.70,13.11,13.40,12.59,10.78,8.13,4.90,1.35,2.23,5.62,8.63,11.11,12.97,14.07,14.30,13.58,11.84,9.08,5.40,0.99,3.88,8.77,13.23,16.75,18.90,19.35,17.99,14.89,10.37,4.90,0.99,6.71,11.71,15.54,17.84,18.44,17.36,14.81,11.15,6.81,2.30,1.95,5.55,8.29,10.05,10.86,10.81,10.08,8.83,7.27,5.57,3.84,2.17,0.57,0.94,2.35,3.62,
7.16,10.51,13.24,15.11,15.83,15.14,12.81,8.73,3.05,3.79,11.09,17.91,23.22,26.09,25.87,22.31,15.63,6.59,3.69,13.79,22.32,28.09,30.34,28.84,23.92,16.38,7.31,2.08,10.64,17.42,21.80,23.53,22.69,19.65,15.02,9.51,3.83,1.44,5.85,9.13,11.14,11.93,11.60,10.36,8.45,6.14,3.72,1.43,0.52,2.03,3.07,3.66,3.93,3.99,3.96,3.95,3.95,3.91,3.71,3.20,2.25,0.84,1.00,3.07,5.11,6.80,7.85,8.04,7.28,5.62,3.26,0.51,2.28,4.74,6.59,7.63,7.81,7.19,5.97,4.39,2.74,1.23,0.02,0.81,1.27,1.48,1.59,1.78,2.21,2.93,3.91,4.99,5.95,6.54,6.54,5.84,4.49,2.64,0.57,1.46,3.24,4.68,5.77,6.57,7.16,7.56,7.74,7.63,7.13,6.14,4.65,2.67,0.30,2.32,5.02,7.56,9.71,11.22,11.88,11.54,10.16,7.81,4.71,1.19,2.32,5.41,7.73,9.04,
4.18,10.47,15.96,20.48,23.99,26.31,27.09,25.86,22.14,15.66,6.53,4.64,16.75,28.33,37.74,43.43,44.27,39.74,30.11,16.42,0.34,16.05,30.60,41.43,47.18,47.21,41.72,31.64,18.49,4.06,9.80,21.45,29.65,33.69,33.43,29.34,22.34,13.70,4.76,3.21,9.27,12.86,13.86,12.56,9.59,5.72,1.79,1.49,3.58,4.23,3.43,1.46,1.27,4.21,6.86,8.76,9.60,9.22,7.62,4.96,1.54,2.25,5.98,9.19,11.54,12.76,12.73,11.49,9.22,6.17,2.69,0.86,4.15,6.94,9.08,10.54,11.32,11.45,10.95,9.84,8.11,5.74,2.80,0.57,4.15,7.63,10.69,13.01,14.38,14.66,13.87,12.07,9.41,6.07,2.29,1.69,5.58,9.09,11.95,13.91,14.80,14.51,13.00,10.33,6.70,2.43,2.06,6.26,9.69,11.93,12.70,11.90,9.59,6.04,1.68,2.95,7.25,10.63,12.62,12.93,11.50,8.49,4.27,0.66,5.72,10.31,13.92,16.13,
6.59,6.35,5.74,4.65,3.01,0.79,1.89,4.79,7.59,9.91,11.35,11.61,10.55,8.21,4.87,0.95,2.97,6.33,8.66,9.63,9.17,7.46,4.91,2.06,0.52,2.34,3.09,2.73,1.47,0.30,2.05,3.31,3.71,3.09,1.52,0.71,3.19,5.44,7.02,7.65,7.19,5.72,3.51,0.92,1.61,3.70,5.07,5.59,5.29,4.35,3.03,1.63,0.42,0.43,0.81,0.72,0.23,0.52,1.33,1.97,2.24,1.99,1.16,0.19,1.87,3.61,5.10,6.04,6.24,5.63,4.27,2.37,0.19,1.94,3.72,4.91,5.39,5.16,4.37,3.27,2.12,1.17,0.54,0.27,0.24,0.28,0.18,0.25,1.09,2.28,3.66,4.97,5.89,6.16,5.60,4.17,2.00,0.65,3.41,5.85,7.58,8.34,8.02,6.68,4.54,1.94,0.68,2.93,4.52,5.30,5.27,4.56,3.41,2.10,0.88,0.02,0.52,0.64,0.47,0.18,0.11,0.32,0.44,0.52,0.60,0.69,0.74,0.64,
3.99,4.06,3.65,2.67,1.16,0.76,2.83,4.74,6.19,6.93,6.82,5.84,4.11,1.82,0.75,3.31,5.52,7.08,7.77,7.44,6.10,3.91,1.15,1.78,4.49,6.59,7.82,8.02,7.15,5.31,2.72,0.30,3.35,6.05,8.04,9.09,9.08,8.04,6.13,3.59,0.68,2.30,5.09,7.43,9.11,9.98,9.95,9.01,7.26,4.88,2.10,0.74,3.28,5.20,6.32,6.66,6.42,5.89,5.37,5.09,5.10,5.30,5.48,5.33,4.58,3.04,0.67,2.38,5.78,9.12,11.91,13.74,14.31,13.48,11.32,8.06,4.04,0.31,4.58,8.44,11.60,13.85,15.07,15.17,14.13,11.97,8.81,4.87,0.46,3.98,8.01,11.18,13.14,13.67,12.74,10.54,7.42,3.90,0.52,2.25,4.07,4.82,4.55,3.57,2.26,1.05,0.28,0.17,0.74,1.88,3.32,4.73,5.78,6.23,5.95,4.91,3.26,1.18,1.07,3.24,5.14,6.60,7.55,7.98,7.89,7.36,6.46,5.25,
3.92,4.16,3.96,3.31,2.23,0.80,0.87,2.63,4.29,5.67,6.59,6.91,6.55,5.49,3.80,1.62,0.82,3.24,5.33,6.79,7.41,7.11,5.98,4.24,2.22,0.21,1.49,2.71,3.34,3.37,2.92,2.13,1.25,0.50,0.08,0.11,0.61,1.48,2.49,3.37,3.81,3.59,2.59,0.85,1.41,3.85,6.06,7.62,8.23,7.74,6.24,3.96,1.28,1.39,3.69,5.35,6.26,6.46,6.09,5.33,4.37,3.33,2.31,1.31,0.31,0.70,1.72,2.70,3.58,4.25,4.63,4.63,4.21,3.37,2.18,0.75,0.72,2.03,2.97,3.41,3.30,2.72,1.81,0.79,0.12,0.75,1.02,0.91,0.51,0.05,0.60,0.97,1.05,0.80,0.28,0.38,1.03,1.53,1.79,1.75,1.44,0.92,0.27,0.39,0.97,1.36,1.49,1.33,0.89,0.25,0.48,1.17,1.69,1.94,1.88,1.49,0.81,0.10,1.11,2.07,2.83,3.25,3.26,2.85,2.11,1.15,0.14,0.78,
3.75,2.11,0.41,1.18,2.53,3.53,4.14,4.40,4.39,4.22,3.96,3.66,3.34,2.96,2.52,1.96,1.25,0.35,0.74,2.01,3.39,4.75,5.95,6.79,7.12,6.81,5.79,4.10,1.86,0.72,3.37,5.80,7.74,8.98,9.35,8.77,7.27,4.92,1.93,1.40,4.67,7.45,9.34,10.06,9.50,7.74,5.04,1.82,1.42,4.18,6.08,6.90,6.61,5.42,3.66,1.73,0.03,1.14,1.63,1.43,0.68,0.37,1.40,2.13,2.29,1.74,0.44,1.45,3.64,5.69,7.17,7.69,7.03,5.18,2.34,1.08,4.56,7.55,9.58,10.32,9.64,7.61,4.50,0.76,3.09,6.47,8.91,10.07,9.78,8.11,5.36,1.95,1.58,4.69,6.96,8.11,8.04,6.88,4.89,2.45,0.04,2.21,3.78,4.61,4.68,4.09,3.01,1.70,0.41,0.64,1.27,1.44,1.19,0.62,0.09,0.79,1.34,1.65,1.64,1.28,0.61,0.34,1.45,2.59,3.59,4.26,4.43,4.01,
2.84,3.24,3.70,3.98,3.86,3.25,2.19,0.88,0.40,1.38,1.91,1.96,1.64,1.20,0.94,1.13,1.92,3.27,4.94,6.56,7.67,7.86,6.87,4.64,1.39,2.47,6.37,9.68,11.81,12.39,11.27,8.63,4.92,0.78,3.07,6.01,7.66,7.87,6.82,4.92,2.70,0.67,0.75,1.35,1.14,0.32,0.78,1.76,2.26,2.07,1.15,0.33,2.05,3.68,4.89,5.44,5.23,4.29,2.80,1.03,0.73,2.18,3.17,3.64,3.68,3.44,3.13,2.91,2.87,3.00,3.15,3.06,2.50,1.27,0.63,3.05,5.67,8.04,9.69,10.19,9.27,6.92,3.39,0.85,5.16,8.86,11.34,12.21,11.30,8.78,5.07,0.80,3.30,6.56,8.45,8.74,7.45,4.93,1.69,1.65,4.48,6.34,6.93,6.20,4.34,1.71,1.22,4.00,6.22,7.62,8.06,7.53,6.15,4.15,1.82,0.55,2.66,4.31,5.39,5.91,5.95,5.67,5.23,4.76,4.33,3.90,3.34,2.45,
5.80,6.14,5.72,4.70,3.27,1.64,0.03,1.58,2.91,3.90,4.48,4.58,4.20,3.41,2.34,1.15,0.02,1.03,1.80,2.29,2.48,2.40,2.09,1.67,1.24,0.90,0.73,0.72,0.81,0.88,0.83,0.56,0.04,0.71,1.60,2.51,3.28,3.76,3.83,3.45,2.62,1.45,0.05,1.44,2.88,4.16,5.15,5.75,5.84,5.37,4.30,2.68,0.64,1.64,3.92,5.95,7.46,8.24,8.16,7.18,5.33,2.72,0.39,3.63,6.56,8.73,9.75,9.43,7.77,5.04,1.65,1.86,4.97,7.22,8.30,8.10,6.68,4.28,1.32,1.73,4.36,6.13,6.73,6.02,4.13,1.36,1.81,4.84,7.19,8.42,8.29,6.76,4.04,0.53,3.24,6.71,9.39,10.97,11.27,10.32,8.26,5.37,1.97,1.58,4.92,7.70,9.67,10.64,10.57,9.51,7.65,5.21,2.46,0.34,2.92,5.06,6.59,7.41,7.55,7.09,6.17,4.93,3.49,1.93,0.33,1.29,2.85,4.24,
2.34,4.10,5.32,6.10,6.53,6.56,6.03,4.73,2.49,0.70,4.64,8.85,12.66,15.31,16.12,14.61,10.68,4.65,2.76,10.56,17.62,22.88,25.54,25.15,21.71,15.69,7.89,0.64,8.82,15.72,20.62,23.16,23.29,21.22,17.39,12.36,6.72,1.06,4.10,8.38,11.48,13.29,13.81,13.17,11.56,9.26,6.54,3.69,0.99,1.34,3.13,4.33,4.95,5.10,4.90,4.45,3.87,3.25,2.65,2.13,1.69,1.30,0.90,0.42,0.17,0.91,1.76,2.63,3.37,3.83,3.87,3.39,2.40,0.96,0.73,2.43,3.85,4.71,4.81,4.07,2.54,0.40,2.05,4.44,6.38,7.53,7.65,6.62,4.53,1.61,1.74,5.08,7.96,10.02,10.99,10.73,9.25,6.71,3.39,0.35,4.06,7.31,9.71,10.97,10.97,9.78,7.63,4.88,1.95,0.78,3.02,4.59,5.44,5.65,5.37,4.80,4.13,3.53,3.06,2.70,2.35,1.87,1.15,0.15,1.10,2.50,3.90,5.14,
1.57,6.07,9.99,13.49,16.70,19.48,21.39,21.79,20.01,15.62,8.59,0.53,10.69,20.43,28.21,32.65,32.83,28.52,20.25,9.21,2.96,14.45,23.62,29.28,30.86,28.50,22.90,15.20,6.72,1.25,7.70,11.99,13.91,13.59,11.42,7.99,4.06,0.48,1.93,2.54,1.09,2.27,6.92,11.93,16.22,18.73,18.66,15.60,9.65,1.39,8.20,17.86,26.27,32.24,34.89,33.78,28.97,21.01,10.85,0.32,11.23,20.67,27.63,31.46,31.92,29.21,23.89,16.79,8.89,1.17,5.51,10.59,13.78,15.14,14.97,13.70,11.85,9.84,7.98,6.43,5.15,4.02,2.86,1.50,0.14,2.06,4.12,6.13,7.85,9.07,9.65,9.52,8.72,7.33,5.49,3.34,1.05,1.24,3.36,5.16,6.51,7.26,7.37,6.83,5.74,4.29,2.72,1.27,0.11,0.67,1.09,1.27,1.38,1.60,2.02,2.67,3.46,4.23,4.77,4.89,4.46,3.43,1.87,0.04,2.07,3.95,5.42,6.30,
1.29,0.75,0.49,0.53,0.87,1.40,1.92,2.24,2.15,1.50,0.26,1.48,3.48,5.40,6.85,7.49,7.12,5.70,3.39,0.52,2.46,5.10,6.99,7.87,7.68,6.54,4.76,2.75,0.91,0.47,1.24,1.46,1.33,1.15,1.20,1.65,2.54,3.72,4.95,5.89,6.24,5.80,4.53,2.57,0.17,2.29,4.44,5.97,6.68,6.56,5.70,4.34,2.75,1.20,0.10,1.05,1.62,1.87,1.89,1.80,1.68,1.57,1.49,1.41,1.29,1.10,0.82,0.47,0.05,0.37,0.75,1.03,1.18,1.20,1.10,0.91,0.67,0.40,0.13,0.16,0.49,0.90,1.41,1.99,2.55,2.94,3.00,2.59,1.64,0.19,1.62,3.55,5.28,6.51,6.95,6.43,4.94,2.64,0.15,2.98,5.38,6.94,7.42,6.80,5.31,3.34,1.33,0.35,1.44,1.89,1.82,1.46,1.08,0.95,1.22,1.85,2.70,3.50,3.99,3.97,3.36,2.27,0.89,0.50,1.62,2.28,2.42,2.12,
5.38,2.85,0.09,3.01,5.47,7.13,7.80,7.46,6.26,4.47,2.39,0.36,1.36,2.57,3.18,3.16,2.62,1.73,0.74,0.10,0.53,0.41,0.29,1.45,2.82,4.10,4.97,5.20,4.66,3.37,1.46,0.82,3.16,5.28,6.91,7.87,8.03,7.39,6.00,4.01,1.63,0.90,3.30,5.31,6.72,7.38,7.24,6.29,4.67,2.56,0.27,1.88,3.56,4.55,4.72,4.13,2.94,1.44,0.03,1.18,1.82,1.87,1.37,0.47,0.61,1.60,2.27,2.44,2.04,1.13,0.12,1.48,2.72,3.60,3.96,3.72,2.89,1.63,0.13,1.35,2.62,3.50,3.91,3.82,3.28,2.38,1.26,0.06,1.08,2.02,2.69,3.02,3.02,2.75,2.29,1.72,1.11,0.52,0.06,0.62,1.20,1.80,2.38,2.92,3.33,3.52,3.39,2.86,1.90,0.57,0.99,2.56,3.89,4.77,5.04,4.66,3.68,2.24,0.55,1.15,2.63,3.73,4.30,4.29,3.68,2.55,1.05,0.61,
0.75,0.59,0.40,0.05,0.52,1.29,2.10,2.69,2.82,2.29,1.06,0.74,2.82,4.80,6.26,6.84,6.34,4.73,2.17,1.02,4.36,7.37,9.60,10.72,10.60,9.27,6.89,3.76,0.24,3.25,6.31,8.61,9.98,10.35,9.79,8.47,6.61,4.42,2.14,0.07,2.08,3.79,5.18,6.21,6.89,7.21,7.15,6.67,5.74,4.36,2.56,0.44,1.80,3.91,5.62,6.67,6.93,6.35,5.01,3.12,0.96,1.13,2.83,3.88,4.11,3.50,2.18,0.40,1.49,3.11,4.14,4.36,3.70,2.24,0.22,2.06,4.20,5.86,6.80,6.88,6.13,4.70,2.82,0.72,1.36,3.26,4.86,6.09,6.91,7.28,7.19,6.59,5.47,3.88,1.88,0.39,2.76,5.04,7.02,8.52,9.35,9.38,8.54,6.86,4.49,1.67,1.27,4.01,6.26,7.82,8.59,8.60,7.94,6.76,5.22,3.47,1.65,0.15,1.86,3.39,4.67,5.63,6.22,6.41,6.19,5.52,4.40,2.88,
2.39,1.89,1.01,0.16,1.37,2.28,2.46,1.52,0.72,4.14,8.26,12.33,15.45,16.78,15.72,12.05,6.01,1.73,10.11,17.90,23.85,26.93,26.54,22.63,15.73,6.92,2.41,10.77,16.87,19.80,19.25,15.53,9.45,2.24,4.75,10.27,13.35,13.49,10.68,5.39,1.49,8.87,15.55,20.49,22.85,22.19,18.44,11.96,3.44,6.12,15.56,23.63,29.23,31.49,29.99,24.77,16.40,5.89,5.46,16.21,24.99,30.71,32.64,30.41,23.99,13.81,0.91,12.96,25.59,34.70,38.40,35.65,26.54,12.33,4.74,21.84,36.01,44.76,46.52,40.89,28.75,12.07,6.50,24.02,37.83,45.95,47.36,42.15,31.40,17.00,1.28,13.42,25.14,32.54,35.08,33.01,27.22,18.99,9.80,1.02,6.29,11.47,14.34,15.08,14.19,12.29,9.99,7.77,5.91,4.50,3.46,2.62,1.79,0.80,0.44,1.90,3.49,5.05,6.42,7.38,7.80,7.58,6.75,5.38,3.66,1.81,0.12,1.16,
2.78,5.22,6.96,7.99,8.35,8.00,6.82,4.65,1.48,2.53,6.93,11.05,14.13,15.45,14.49,11.06,5.37,1.95,9.95,17.49,23.41,26.74,26.87,23.62,17.32,8.71,1.11,10.90,19.45,25.75,29.13,29.35,26.56,21.29,14.35,6.66,0.85,7.40,12.41,15.62,17.02,16.86,15.56,13.59,11.37,9.21,7.23,5.44,3.72,1.91,0.11,2.40,4.91,7.50,9.95,12.02,13.48,14.13,13.84,12.58,10.39,7.40,3.83,0.04,3.93,7.53,10.62,13.06,14.73,15.58,15.60,14.76,13.08,10.55,7.22,3.17,1.44,6.37,11.29,15.79,19.39,21.64,22.13,20.66,17.20,11.95,5.35,1.99,9.31,15.84,20.86,23.78,24.29,22.32,18.12,12.22,5.33,1.70,8.02,12.89,15.81,16.58,15.30,12.36,8.35,3.95,0.22,3.66,6.07,7.35,7.53,6.76,5.25,3.20,0.83,1.71,4.24,6.57,8.48,9.71,10.05,9.35,7.60,4.82,1.06,3.52,8.56,13.43,
6.58,10.33,12.73,13.20,11.52,8.02,3.51,0.89,3.97,4.78,2.88,1.49,7.47,13.70,18.61,20.78,19.25,13.69,4.59,6.91,19.14,30.19,38.31,42.16,41.11,35.27,25.49,13.14,0.14,12.72,23.25,30.82,35.03,35.98,34.11,30.08,24.63,18.42,11.96,5.60,0.49,6.21,11.52,16.33,20.46,23.69,25.75,26.37,25.32,22.51,17.98,11.99,4.97,2.49,9.73,16.08,20.96,23.97,24.90,23.75,20.70,16.12,10.47,4.30,1.84,7.46,12.13,15.54,17.48,17.93,16.93,14.66,11.36,7.32,2.87,1.65,5.91,9.61,12.49,14.34,15.05,14.55,12.88,10.13,6.49,2.21,2.34,6.77,10.67,13.67,15.49,15.95,15.00,12.72,9.29,5.03,0.29,4.49,8.87,12.41,14.73,15.55,14.75,12.43,8.90,4.63,0.19,3.84,7.00,9.02,9.81,9.51,8.39,6.84,5.24,3.87,2.91,2.35,2.03,1.68,1.01,0.23,2.15,4.68,7.58,10.48,12.92,14.48,
2.11,2.12,2.07,1.77,1.20,0.53,0.07,0.18,1.06,2.68,4.71,6.57,7.57,7.08,4.73,0.45,5.41,12.12,18.69,23.98,26.93,26.74,23.05,16.03,6.39,4.69,15.76,25.32,32.08,35.14,34.14,29.31,21.40,11.57,1.18,8.42,16.12,21.17,23.25,22.51,19.47,14.93,9.84,5.06,1.22,1.37,2.74,3.21,3.28,3.45,4.15,5.57,7.63,9.99,12.10,13.33,13.11,11.10,7.22,1.77,4.64,11.11,16.66,20.32,21.40,19.58,15.03,8.40,0.69,6.93,13.29,17.50,19.00,17.70,13.95,8.46,2.17,3.95,9.00,12.27,13.37,12.21,9.03,4.41,0.91,6.08,10.32,13.03,13.82,12.58,9.43,4.71,1.03,7.12,12.80,17.32,20.05,20.54,18.60,14.32,8.09,0.59,7.31,14.63,20.44,24.00,24.86,22.94,18.52,12.20,4.80,2.73,9.49,14.71,17.82,18.58,17.08,13.72,9.16,4.23,0.29,3.71,5.65,6.00,4.96,2.99,0.72,1.21,
2.79,3.06,3.25,3.28,3.04,2.46,1.54,0.35,0.96,2.24,3.29,3.98,4.21,3.96,3.31,2.38,1.34,0.38,0.37,0.82,0.96,0.84,0.54,0.19,0.09,0.21,0.15,0.07,0.35,0.58,0.65,0.48,0.09,0.45,0.97,1.30,1.26,0.72,0.35,1.83,3.52,5.08,6.18,6.52,5.94,4.42,2.13,0.67,3.58,6.22,8.23,9.39,9.60,8.89,7.39,5.32,2.91,0.37,2.12,4.45,6.47,8.10,9.20,9.67,9.42,8.46,6.86,4.76,2.34,0.23,2.80,5.22,7.34,9.00,10.06,10.39,9.91,8.61,6.59,4.00,1.09,1.86,4.51,6.57,7.80,8.08,7.45,6.10,4.31,2.45,0.82,0.36,0.99,1.09,0.79,0.27,0.25,0.56,0.52,0.09,0.66,1.57,2.45,3.17,3.61,3.68,3.35,2.64,1.60,0.30,1.15,2.61,3.90,4.83,5.22,4.95,4.01,2.48,0.53,1.60,3.66,5.40,6.61,7.12,6.82,5.70,3.84,1.45,
2.18,4.62,6.23,6.67,5.85,3.96,1.40,1.26,3.45,4.70,4.74,3.59,1.52,1.00,3.41,5.18,5.94,5.53,4.05,1.78,0.84,3.37,5.40,6.68,7.11,6.76,5.81,4.50,3.03,1.57,0.20,1.07,2.25,3.39,4.49,5.52,6.36,6.83,6.76,6.03,4.63,2.67,0.41,1.86,3.81,5.19,5.82,5.69,4.89,3.67,2.30,1.10,0.30,0.06,0.35,1.05,1.91,2.65,2.97,2.62,1.46,0.48,3.02,5.81,8.40,10.33,11.24,10.89,9.27,6.47,2.79,1.41,5.67,9.56,12.64,14.60,15.21,14.42,12.35,9.22,5.33,1.03,3.33,7.39,10.85,13.40,14.84,15.03,13.92,11.58,8.24,4.21,0.06,4.13,7.56,10.04,11.42,11.69,10.93,9.35,7.18,4.71,2.18,0.19,2.21,3.77,4.80,5.30,5.36,5.13,4.75,4.39,4.11,3.94,3.82,3.63,3.24,2.51,1.35,0.25,2.25,4.49,6.74,8.72,10.12,10.68,10.20,8.59,
1.76,3.21,4.70,6.03,6.89,6.99,6.10,4.12,1.14,2.50,6.27,9.53,11.67,12.24,11.03,8.16,4.05,0.70,5.36,9.23,11.77,12.66,11.86,9.60,6.30,2.51,1.22,4.38,6.62,7.75,7.74,6.72,4.96,2.80,0.60,1.31,2.63,3.18,2.89,1.87,0.35,1.34,2.83,3.80,4.07,3.58,2.43,0.84,0.92,2.56,3.88,4.75,5.14,5.12,4.80,4.29,3.64,2.84,1.83,0.57,0.97,2.70,4.48,6.05,7.17,7.64,7.35,6.33,4.72,2.74,0.65,1.34,3.08,4.51,5.63,6.44,6.94,7.11,6.89,6.23,5.10,3.47,1.37,1.08,3.70,6.25,8.45,9.97,10.55,9.99,8.23,5.38,1.73,2.31,6.20,9.43,11.53,12.21,11.34,9.05,5.63,1.56,2.60,6.30,9.08,10.62,10.81,9.73,7.65,4.93,1.93,1.00,3.60,5.67,7.12,7.89,7.97,7.40,6.19,4.41,2.16,0.34,2.84,5.04,6.64,7.41,7.27,6.23,
1.23,1.49,1.57,1.52,1.40,1.23,1.01,0.72,0.34,0.10,0.59,1.07,1.50,1.79,1.88,1.70,1.24,0.50,0.44,1.45,2.37,3.05,3.35,3.20,2.59,1.56,0.23,1.23,2.61,3.68,4.25,4.23,3.61,2.49,1.06,0.50,1.95,3.12,3.87,4.11,3.83,3.10,2.02,0.75,0.55,1.74,2.73,3.47,3.97,4.21,4.19,3.90,3.31,2.41,1.18,0.34,2.06,3.85,5.51,6.84,7.64,7.77,7.14,5.76,3.75,1.29,1.37,3.94,6.15,7.75,8.62,8.71,8.12,7.00,5.56,3.95,2.28,0.62,1.03,2.66,4.25,5.77,7.15,8.27,8.97,9.10,8.50,7.14,5.03,2.32,0.75,3.88,6.70,8.90,10.22,10.53,9.82,8.19,5.84,3.03,0.04,2.80,5.16,6.80,7.52,7.24,6.02,4.06,1.68,0.73,2.76,4.03,4.33,3.61,2.07,0.04,2.05,3.77,4.76,4.85,4.03,2.49,0.51,1.56,3.43,4.84,5.65,5.82,
2.43,3.35,3.85,3.87,3.41,2.59,1.59,0.63,0.08,0.42,0.34,0.10,0.76,1.42,1.82,1.76,1.14,0.03,1.57,3.23,4.70,5.65,5.85,5.17,3.62,1.41,1.16,3.66,5.69,6.91,7.11,6.26,4.49,2.09,0.55,3.01,4.88,5.84,5.76,4.70,2.94,0.87,1.06,2.46,3.12,3.01,2.26,1.16,0.01,0.90,1.38,1.35,0.88,0.14,0.63,1.18,1.34,1.03,0.30,0.64,1.52,2.06,2.03,1.35,0.10,1.46,3.00,4.15,4.63,4.28,3.11,1.30,0.85,3.01,4.80,5.97,6.36,5.93,4.79,3.14,1.23,0.70,2.43,3.77,4.62,4.94,4.78,4.25,3.46,2.53,1.53,0.52,0.47,1.38,2.16,2.73,3.03,3.02,2.73,2.17,1.41,0.53,0.35,1.11,1.62,1.75,1.44,0.70,0.38,1.61,2.75,3.50,3.64,3.01,1.62,0.34,2.56,4.68,6.30,7.13,6.99,5.85,3.83,1.22,1.63,4.30,6.40,7.60,
3.78,2.79,1.52,0.02,1.62,3.26,4.71,5.74,6.15,5.82,4.72,2.99,0.88,1.27,3.15,4.49,5.10,4.94,4.03,2.54,0.73,1.09,2.59,3.51,3.69,3.12,1.90,0.27,1.47,3.03,4.12,4.56,4.24,3.20,1.55,0.47,2.57,4.43,5.75,6.31,5.99,4.80,2.90,0.57,1.80,3.84,5.23,5.75,5.36,4.16,2.40,0.43,1.40,2.77,3.45,3.34,2.47,1.02,0.76,2.57,4.06,4.95,5.02,4.18,2.49,0.16,2.48,4.98,6.89,7.85,7.73,6.58,4.67,2.39,0.16,1.71,3.01,3.70,3.85,3.66,3.34,3.06,2.95,3.02,3.21,3.39,3.37,3.00,2.16,0.86,0.77,2.53,4.12,5.27,5.73,5.36,4.21,2.47,0.47,1.37,2.67,3.15,2.71,1.46,0.32,2.25,3.88,4.82,4.81,3.73,1.69,1.02,3.94,6.57,8.41,9.13,8.57,6.83,4.19,1.09,1.97,4.51,6.20,6.90,6.64,5.65,4.23,2.69,
2.48,4.27,5.20,5.33,4.83,3.95,2.95,2.05,1.41,1.14,1.25,1.66,2.27,2.93,3.49,3.83,3.86,3.52,2.78,1.61,0.03,1.89,4.05,6.28,8.38,10.13,11.29,11.67,11.07,9.41,6.73,3.19,0.89,5.10,8.97,12.04,13.96,14.49,13.59,11.42,8.30,4.65,0.93,2.43,5.12,6.94,7.85,7.95,7.41,6.49,5.42,4.37,3.44,2.59,1.74,0.77,0.39,1.75,3.25,4.78,6.17,7.27,7.92,8.00,7.46,6.30,4.59,2.44,0.01,2.60,5.13,7.40,9.21,10.41,10.85,10.50,9.36,7.50,5.05,2.16,0.99,4.18,7.18,9.74,11.59,12.50,12.29,10.90,8.35,4.82,0.60,3.87,8.11,11.65,14.05,14.96,14.20,11.77,7.89,3.02,2.19,7.01,10.78,12.99,13.42,12.12,9.44,5.93,2.28,0.91,3.16,4.26,4.25,3.37,2.03,0.69,0.27,0.58,0.16,0.86,2.23,3.61,4.64,5.07,4.80,3.87,2.47,0.87,
14.67,14.55,13.14,10.08,5.37,0.48,6.43,11.12,13.23,11.89,6.97,0.82,9.95,18.45,24.25,25.66,21.78,12.70,0.46,15.75,30.74,42.94,50.28,51.46,46.14,34.94,19.34,1.38,16.65,32.59,44.68,51.74,53.35,49.71,41.63,30.30,17.14,3.63,8.78,18.69,25.08,27.56,26.61,23.38,19.44,16.26,14.87,15.57,17.85,20.56,22.25,21.47,17.19,9.03,2.56,16.40,30.69,43.38,52.50,56.52,54.59,46.72,33.71,17.05,1.27,19.16,34.65,46.18,52.77,54.12,50.55,42.91,32.43,20.43,8.21,3.18,13.01,20.86,26.62,30.39,32.37,32.73,31.58,28.93,24.78,19.11,12.04,3.85,4.98,13.76,21.71,28.00,31.92,32.95,30.87,25.78,18.18,8.87,1.10,10.57,18.44,23.88,26.38,25.86,22.65,17.38,10.88,4.06,2.28,7.53,11.32,13.55,14.30,13.82,12.42,10.46,8.26,6.05,3.99,2.13,0.46,1.08,2.59,4.11,5.67,7.20,8.59,9.66,
24.01,31.92,37.48,40.18,39.71,35.88,28.64,18.15,4.92,10.12,25.60,39.84,51.00,57.39,57.76,51.61,39.35,22.25,2.35,17.87,35.88,49.44,56.99,57.83,52.23,41.32,26.84,10.84,4.66,17.98,27.95,34.04,36.30,35.23,31.63,26.40,20.35,14.11,8.09,2.46,2.78,7.68,12.27,16.51,20.22,23.14,24.95,25.33,24.01,20.85,15.84,9.19,1.36,6.97,14.98,21.80,26.63,28.86,28.20,24.71,18.80,11.21,2.83,5.35,12.43,17.67,20.63,21.19,19.53,16.10,11.50,6.36,1.27,3.31,7.08,9.87,11.63,12.37,12.13,11.01,9.11,6.59,3.62,0.43,2.75,5.68,8.11,9.80,10.61,10.42,9.28,7.33,4.83,2.13,0.45,2.62,4.22,5.22,5.69,5.79,5.71,5.64,5.74,6.08,6.57,6.97,6.88,5.90,3.76,0.41,3.88,8.57,12.94,16.23,17.83,17.36,14.77,10.38,4.77,1.23,6.81,11.23,14.02,15.00,14.32,12.34,9.57,6.58,
9.57,9.62,9.66,10.05,10.85,11.65,11.64,9.86,5.49,1.74,11.40,22.30,32.65,40.40,43.62,41.01,32.16,17.74,0.54,20.20,38.41,52.45,60.19,60.49,53.32,39.79,21.91,2.20,16.68,32.37,43.10,47.99,47.03,41.06,31.54,20.23,8.85,1.14,8.78,13.70,16.03,16.31,15.29,13.73,12.26,11.26,10.82,10.73,10.62,10.02,8.59,6.11,2.62,1.62,6.19,10.56,14.17,16.54,17.38,16.57,14.23,10.66,6.31,1.70,2.68,6.42,9.20,10.86,11.36,10.85,9.55,7.73,5.66,3.57,1.63,0.06,1.44,2.50,3.25,3.74,4.01,4.10,4.03,3.81,3.46,2.98,2.40,1.76,1.08,0.42,0.20,0.78,1.30,1.79,2.24,2.66,2.99,3.17,3.13,2.80,2.15,1.19,0.02,1.24,2.44,3.38,3.93,3.99,3.55,2.67,1.45,0.04,1.39,2.70,3.72,4.30,4.35,3.82,2.73,1.20,0.57,2.34,3.82,4.78,5.04,4.51,3.22,1.36,
1.18,1.63,4.39,6.76,8.43,9.21,9.00,7.81,5.75,3.03,0.05,3.17,5.98,8.19,9.62,10.18,9.91,8.91,7.30,5.22,2.83,0.23,2.41,4.96,7.21,8.95,9.99,10.15,9.33,7.59,5.10,2.16,0.87,3.62,5.77,7.11,7.51,6.99,5.67,3.80,1.69,0.27,1.75,2.47,2.33,1.40,0.06,1.68,3.03,3.72,3.49,2.26,0.18,2.46,5.19,7.53,9.04,9.40,8.48,6.35,3.28,0.30,3.89,6.99,9.18,10.18,9.89,8.42,6.03,3.13,0.18,2.42,4.36,5.45,5.69,5.18,4.15,2.87,1.62,0.61,0.04,0.32,0.34,0.23,0.14,0.20,0.50,1.06,1.82,2.66,3.39,3.85,3.88,3.37,2.30,0.74,1.16,3.19,5.06,6.52,7.33,7.38,6.61,5.09,2.95,0.39,2.34,4.96,7.19,8.81,9.67,9.72,9.01,7.61,5.63,3.17,0.37,2.62,5.61,8.37,10.67,12.28,12.96,12.56,11.00,8.36,4.84,0.78,
4.15,3.81,3.16,2.33,1.53,0.90,0.53,0.39,0.36,0.32,0.13,0.27,0.88,1.62,2.37,2.99,3.35,3.39,3.11,2.53,1.75,0.88,0.02,0.75,1.37,1.80,2.05,2.13,2.06,1.88,1.67,1.46,1.30,1.17,1.04,0.90,0.73,0.53,0.30,0.04,0.30,0.77,1.38,2.13,2.95,3.69,4.16,4.17,3.60,2.41,0.72,1.26,3.22,4.88,5.97,6.32,5.86,4.64,2.84,0.71,1.45,3.35,4.75,5.51,5.56,4.96,3.82,2.35,0.76,0.74,2.00,2.94,3.52,3.75,3.63,3.17,2.39,1.34,0.15,1.05,2.10,2.87,3.23,3.14,2.61,1.74,0.67,0.40,1.33,2.01,2.38,2.47,2.35,2.08,1.71,1.29,0.80,0.27,0.32,0.95,1.58,2.16,2.64,2.98,3.16,3.14,2.88,2.36,1.56,0.51,0.73,2.04,3.28,4.28,4.88,4.94,4.37,3.20,1.54,0.36,2.21,3.68,4.52,4.56,3.78,2.33,0.45,1.51,
1.12,3.05,4.55,5.26,4.97,3.72,1.81,0.29,2.03,2.97,2.90,1.84,0.10,1.85,3.50,4.38,4.19,2.86,0.55,2.32,5.21,7.58,8.99,9.20,8.20,6.21,3.63,0.87,1.66,3.69,5.09,5.89,6.21,6.24,6.13,5.97,5.78,5.48,4.97,4.12,2.85,1.15,0.87,3.03,5.12,6.90,8.17,8.81,8.77,8.04,6.69,4.81,2.56,0.13,2.27,4.42,6.17,7.40,8.06,8.12,7.58,6.45,4.81,2.78,0.53,1.76,3.94,5.86,7.34,8.20,8.24,7.34,5.48,2.79,0.42,3.71,6.60,8.61,9.40,8.85,7.01,4.16,0.76,2.67,5.65,7.80,8.89,8.89,7.89,6.13,3.85,1.32,1.22,3.56,5.53,6.99,7.84,8.01,7.48,6.29,4.53,2.37,0.02,2.26,4.24,5.72,6.57,6.75,6.28,5.28,3.91,2.33,0.69,0.87,2.24,3.31,4.01,4.26,4.03,3.31,2.21,0.87,0.48,1.61,2.32,2.48,2.06,1.15,
